"Time (s)","X (rad/s)","Y (rad/s)","Z (rad/s)"
-2.364499960E-3,1.094607189E-1,-4.570594728E-1,-4.021499455E-1
7.664500037E-3,7.211840153E-2,-5.097357035E-1,-4.231337905E-1
1.769350003E-2,3.478173167E-2,-5.176276565E-1,-3.993236721E-1
2.772250003E-2,1.534118969E-2,-5.220674276E-1,-3.395620584E-1
3.775150003E-2,3.769067675E-2,-5.519437790E-1,-2.534201443E-1
4.778050003E-2,7.419116050E-2,-5.796273351E-1,-1.646125317E-1
5.780950002E-2,1.375970393E-1,-5.949567556E-1,-1.014026627E-1
6.783950003E-2,1.737145633E-1,-6.225071549E-1,-8.917475492E-2
7.786850003E-2,1.783941090E-1,-6.866994500E-1,-1.178936288E-1
8.789750002E-2,1.553721428E-1,-7.719395161E-1,-1.716399640E-1
9.792650002E-2,9.553478658E-2,-8.520483971E-1,-2.397231609E-1
1.079555000E-1,2.303911839E-3,-9.380455613E-1,-2.993068695E-1
1.179845000E-1,-1.312033087E-1,-9.969585538E-1,-3.725030124E-1
1.280135000E-1,-2.720967829E-1,-1.029832125E0,-4.526777565E-1
1.380425000E-1,-4.114828706E-1,-1.049740434E0,-5.435261726E-1
1.480715000E-1,-5.278318524E-1,-1.071930170E0,-6.175178289E-1
1.581015000E-1,-6.122376919E-1,-1.055463076E0,-6.584881544E-1
1.681305000E-1,-6.617128253E-1,-1.019901156E0,-6.418127418E-1
1.781595000E-1,-6.923635602E-1,-9.653839469E-1,-5.683518052E-1
1.881885000E-1,-7.108852863E-1,-8.871865869E-1,-4.417089224E-1
1.982175000E-1,-7.184190154E-1,-8.362447023E-1,-3.010254800E-1
2.082465000E-1,-7.130336165E-1,-7.967526913E-1,-1.541830450E-1
2.182755000E-1,-6.652663946E-1,-7.393018007E-1,-3.875511140E-2
2.283045000E-1,-5.841017962E-1,-6.661532521E-1,2.333835140E-2
2.383335000E-1,-5.128811598E-1,-6.334834695E-1,4.201966524E-2
2.483635000E-1,-4.638746977E-1,-6.612264514E-1,3.360274434E-2
2.583925000E-1,-4.418374896E-1,-7.025314569E-1,1.914528315E-3
2.684215000E-1,-4.252443910E-1,-6.900161505E-1,-4.773345217E-2
2.784505000E-1,-3.964481652E-1,-6.132507920E-1,-1.017916277E-1
2.884795000E-1,-3.689683378E-1,-5.222423673E-1,-1.480368972E-1
2.985085000E-1,-3.652445376E-1,-4.450953901E-1,-1.823809892E-1
3.085375000E-1,-3.872819245E-1,-3.850216866E-1,-1.968435496E-1
3.185665000E-1,-4.154535532E-1,-3.598795831E-1,-2.000622749E-1
3.285955000E-1,-4.505364299E-1,-3.621083796E-1,-1.946728379E-1
3.386245000E-1,-4.848047793E-1,-4.085768759E-1,-1.855236590E-1
3.486545000E-1,-5.190796852E-1,-4.812180698E-1,-2.017004937E-1
3.586835000E-1,-5.336261392E-1,-5.558393598E-1,-2.023971528E-1
3.687125000E-1,-5.336088538E-1,-6.432962418E-1,-1.437631398E-1
3.787415000E-1,-4.965324104E-1,-7.176780105E-1,-6.085494533E-2
3.887705000E-1,-4.053454995E-1,-7.927493453E-1,2.291425318E-2
3.987995000E-1,-2.649681866E-1,-8.659457564E-1,1.059281453E-1
4.088285000E-1,-8.537553251E-2,-8.925291300E-1,1.809488684E-1
4.188575000E-1,1.088100448E-1,-8.520382643E-1,2.413153052E-1
4.288865000E-1,2.852956057E-1,-7.507089972E-1,2.905454338E-1
4.389158750E-1,4.187821150E-1,-6.023138165E-1,3.129816949E-1
4.489448750E-1,4.796161950E-1,-4.134808481E-1,3.158177137E-1
4.589738750E-1,4.406584799E-1,-2.452320755E-1,3.151480556E-1
4.690028750E-1,3.137766719E-1,-1.238031089E-1,2.809522748E-1
4.790318750E-1,1.308026910E-1,-3.781852126E-2,2.104476243E-1
4.890608750E-1,-4.294939339E-2,4.630487785E-2,1.580105126E-1
4.990898750E-1,-1.295536757E-1,9.612330794E-2,8.476583660E-2
5.091188750E-1,-7.569097728E-2,1.864089966E-1,-2.029347047E-2
5.191478750E-1,4.236805812E-2,3.477762043E-1,-8.208990842E-2
5.291778750E-1,1.747154444E-1,4.778066576E-1,-5.432778597E-2
5.392068750E-1,2.859626412E-1,5.349974036E-1,-7.605630904E-3
5.492358750E-1,3.691643178E-1,5.250316262E-1,1.869363128E-3
5.592648750E-1,4.265592098E-1,4.927766323E-1,-4.949398339E-2
5.692938750E-1,4.805100858E-1,4.701285660E-1,-1.092976630E-1
5.793228750E-1,5.540862083E-1,4.642532766E-1,-9.897515178E-2
5.893518750E-1,6.366971731E-1,4.544049203E-1,-1.240936667E-2
5.993808750E-1,7.000361085E-1,4.581064284E-1,1.521261781E-1
6.094098750E-1,7.352790236E-1,4.501654208E-1,3.960720003E-1
6.194398750E-1,7.278860211E-1,3.572601080E-1,5.729705095E-1
6.294688750E-1,6.654801369E-1,2.704913914E-1,6.745155454E-1
6.394978750E-1,5.469703078E-1,2.262080461E-1,7.341127992E-1
6.495268750E-1,3.891471028E-1,2.322273254E-1,7.645857334E-1
6.595558750E-1,1.753007025E-1,2.506535947E-1,7.500963211E-1
6.695848750E-1,-6.853567064E-2,2.452108711E-1,6.909954548E-1
6.796138750E-1,-3.099023998E-1,2.048043311E-1,5.859279633E-1
6.896428750E-1,-5.202362537E-1,1.777519286E-1,4.998162389E-1
6.996718750E-1,-6.635830998E-1,1.633625329E-1,4.719087780E-1
7.097008750E-1,-7.074408531E-1,1.237464026E-1,4.503563344E-1
7.197308750E-1,-6.765328646E-1,5.271529034E-2,4.048128724E-1
7.297598750E-1,-5.770888329E-1,1.571625657E-2,3.571169674E-1
7.397888750E-1,-4.413948953E-1,2.893787250E-2,3.132565618E-1
7.498178750E-1,-3.004316390E-1,6.033813581E-2,2.732609510E-1
7.598468750E-1,-1.731536686E-1,8.671532571E-2,2.512486875E-1
7.698758750E-1,-6.954337656E-2,1.087069064E-1,2.512100637E-1
7.799048750E-1,1.438959595E-2,1.382989883E-1,2.528817058E-1
7.899338750E-1,8.835703135E-2,1.715871692E-1,2.588801980E-1
7.999628750E-1,1.507514119E-1,2.119584680E-1,2.710258067E-1
8.099928750E-1,1.986928433E-1,2.471721172E-1,2.942267358E-1
8.200218750E-1,2.269423604E-1,2.705802321E-1,3.181835115E-1
8.300508750E-1,2.408648133E-1,2.866244316E-1,3.481320739E-1
8.400798750E-1,2.376111001E-1,2.718396485E-1,3.778737485E-1
8.501088750E-1,2.088382989E-1,2.229706347E-1,4.102822840E-1
8.601378750E-1,1.650051773E-1,1.523902267E-1,4.442569911E-1
8.701668750E-1,1.068665013E-1,7.552392781E-2,4.779798090E-1
8.801958750E-1,2.414110489E-2,6.484312937E-3,5.050829649E-1
8.902248750E-1,-5.991518125E-2,-4.006268457E-2,5.065485239E-1
9.002548750E-1,-1.271963418E-1,-9.159272164E-2,4.797669649E-1
9.102838750E-1,-1.692109108E-1,-1.400891393E-1,4.269663095E-1
9.203128750E-1,-1.765880585E-1,-1.750747412E-1,3.666534722E-1
9.303418749E-1,-1.384667754E-1,-1.674194783E-1,3.123143315E-1
9.403708749E-1,-4.508357123E-2,-1.254542619E-1,2.538543940E-1
9.503998749E-1,7.461779565E-2,-5.329326168E-2,1.946576387E-1
9.604288749E-1,1.990847737E-1,1.103725843E-2,1.346827298E-1
9.704578749E-1,2.945290208E-1,5.757226795E-2,6.930718571E-2
9.804868749E-1,3.543680608E-1,1.232804433E-1,6.172113866E-2
9.905158749E-1,3.542370200E-1,1.150464863E-1,6.650390476E-2
1.000545875E0,2.948951423E-1,1.598711163E-1,5.038289353E-2
1.010574875E0,1.599024385E-1,1.764639467E-1,2.810981311E-2
1.020603875E0,-3.038676456E-2,1.417918056E-1,-3.099944443E-2
1.030632875E0,-1.812662929E-1,6.496653706E-2,-7.768465579E-2
1.040661875E0,-2.488046736E-1,-4.139923677E-2,-1.073261872E-1
1.050690875E0,-2.165641934E-1,-1.447914094E-1,-1.255920082E-1
1.060719875E0,-9.391856939E-2,-2.328414470E-1,-1.753278375E-1
1.070748875E0,6.373657286E-2,-2.334105670E-1,-2.333834171E-1
1.080777875E0,2.223130763E-1,-2.111010104E-1,-3.897934854E-1
1.090807875E0,3.967844844E-1,-8.889947087E-2,-5.698801875E-1
1.100836875E0,5.606027246E-1,1.971392334E-2,-6.502467990E-1
1.110865875E0,6.846842170E-1,4.546269402E-2,-6.254115105E-1
1.120894875E0,8.126236796E-1,5.503321439E-2,-5.185196400E-1
1.130923875E0,9.337024093E-1,6.846619397E-2,-3.827646971E-1
1.140952875E0,1.006303191E0,4.546899721E-2,-2.699795067E-1
1.150981875E0,9.993951917E-1,-1.205528248E-2,-2.208673358E-1
1.161010875E0,9.175428152E-1,-7.935948670E-2,-2.209504545E-1
1.171039875E0,7.828851342E-1,-1.687375754E-1,-2.447061092E-1
1.181069875E0,5.992875099E-1,-2.813402712E-1,-2.760376632E-1
1.191098875E0,3.952400982E-1,-3.658964336E-1,-3.148369789E-1
1.201127875E0,1.719154865E-1,-4.578655362E-1,-3.704780638E-1
1.211156875E0,-5.989352614E-2,-5.702698827E-1,-4.353958070E-1
1.221185875E0,-2.542324662E-1,-6.300074458E-1,-5.023086071E-1
1.231214875E0,-4.149584770E-1,-6.362951994E-1,-5.686742663E-1
1.241243875E0,-5.547642112E-1,-5.897393227E-1,-6.070933938E-1
1.251272875E0,-6.502462626E-1,-4.986530840E-1,-5.959835052E-1
1.261301875E0,-7.178642750E-1,-3.950493634E-1,-5.526473522E-1
1.271330875E0,-7.667223215E-1,-3.081445396E-1,-4.624769390E-1
1.281360875E0,-7.885201573E-1,-2.393867075E-1,-3.327528238E-1
1.291389875E0,-7.670071721E-1,-1.923848540E-1,-1.705346107E-1
1.301418875E0,-6.988032460E-1,-1.969840378E-1,-3.088334203E-2
1.311447875E0,-5.975136757E-1,-2.140626311E-1,5.171273649E-2
1.321476875E0,-4.723867774E-1,-1.960329115E-1,7.931596041E-2
1.331505875E0,-3.473007679E-1,-1.609345824E-1,6.087197363E-2
1.341534875E0,-2.411778122E-1,-1.260804832E-1,1.211411972E-2
1.351563875E0,-1.559612006E-1,-8.873578161E-2,-4.373023659E-2
1.361592875E0,-9.895169735E-2,-2.944022976E-2,-1.002278700E-1
1.371622875E0,-6.374151260E-2,6.589294225E-2,-1.605817527E-1
1.381651875E0,-5.596319959E-2,1.752842516E-1,-2.218191773E-1
1.391680875E0,-8.437806368E-2,2.770697474E-1,-2.786574066E-1
1.401709875E0,-1.314604729E-1,3.613041043E-1,-3.323144317E-1
1.411738875E0,-1.917866617E-1,3.931243420E-1,-3.839201033E-1
1.421767875E0,-2.755094767E-1,3.307130039E-1,-4.305859208E-1
1.431796750E0,-3.669017255E-1,1.882317364E-1,-4.513247609E-1
1.441825750E0,-4.419250488E-1,2.050523087E-2,-4.398312569E-1
1.451854750E0,-4.912832975E-1,-1.589263231E-1,-3.959738016E-1
1.461883750E0,-5.060017705E-1,-3.289553225E-1,-3.254215717E-1
1.471913750E0,-4.817065299E-1,-4.593607187E-1,-2.571812570E-1
1.481942750E0,-4.270801544E-1,-5.409418344E-1,-1.987669468E-1
1.491971750E0,-3.612297773E-1,-5.571032166E-1,-1.053107679E-1
1.502000750E0,-2.963121533E-1,-5.222965479E-1,7.546246052E-2
1.512029750E0,-2.433096915E-1,-4.956063330E-1,2.541022599E-1
1.522058750E0,-2.275924534E-1,-4.746138155E-1,3.713677227E-1
1.532087750E0,-2.518306971E-1,-4.180408120E-1,4.277721345E-1
1.542116750E0,-3.432525992E-1,-4.148621261E-1,5.019353628E-1
1.552145750E0,-4.743712246E-1,-4.265909493E-1,5.436931849E-1
1.562175750E0,-6.237982512E-1,-4.540058970E-1,5.519449115E-1
1.572204750E0,-7.590255737E-1,-4.446336925E-1,5.300478339E-1
1.582233750E0,-8.364388347E-1,-3.390548825E-1,4.672880769E-1
1.592262750E0,-8.154765368E-1,-1.493914723E-1,3.563069403E-1
1.602291750E0,-6.892718673E-1,7.619421929E-2,2.218650728E-1
1.612320750E0,-4.925329983E-1,3.492598534E-1,9.835459292E-2
1.622349750E0,-2.780629098E-1,5.787177682E-1,4.360217601E-3
1.632378750E0,-7.396758348E-2,7.259194255E-1,-4.006929696E-2
1.642407750E0,1.157683656E-1,8.011490107E-1,-2.105706371E-2
1.652436750E0,2.875310779E-1,8.068074584E-1,6.059678644E-2
1.662466750E0,4.513697028E-1,7.196960449E-1,2.105685622E-1
1.672495750E0,5.933462381E-1,4.946754873E-1,3.804633319E-1
1.682524750E0,6.916688085E-1,2.577813566E-1,6.017000079E-1
1.692553750E0,7.447216511E-1,6.953899562E-2,8.707525134E-1
1.702582750E0,7.601048350E-1,-4.784658179E-2,1.158748984E0
1.712611750E0,7.165650725E-1,-8.594043553E-2,1.393037081E0
1.722640750E0,6.251794696E-1,-7.734027505E-2,1.520298839E0
1.732669750E0,4.775303602E-1,-2.662756294E-2,1.534042835E0
1.742698750E0,2.893754840E-1,6.016795710E-2,1.473411560E0
1.752727750E0,8.194265515E-2,1.880729347E-1,1.352342367E0
1.762757750E0,-1.138119698E-1,3.033531904E-1,1.193384886E0
1.772786750E0,-2.930427194E-1,3.612894416E-1,1.021003366E0
1.782815750E0,-4.453816414E-1,3.752068579E-1,8.364116549E-1
1.792844750E0,-5.586357713E-1,3.792293072E-1,6.546849608E-1
1.802873750E0,-6.129420996E-1,3.604891598E-1,4.846651554E-1
1.812902750E0,-5.842121840E-1,3.179576695E-1,3.300257623E-1
1.822931750E0,-4.859719872E-1,2.901722193E-1,2.485882789E-1
1.832960750E0,-3.374048769E-1,2.544160783E-1,2.331688404E-1
1.842989750E0,-1.673548222E-1,2.099042833E-1,2.438241839E-1
1.853019750E0,2.820369788E-3,1.645253450E-1,2.486226708E-1
1.863048750E0,1.601694226E-1,1.503908783E-1,2.412582636E-1
1.873077750E0,3.216216862E-1,1.762571037E-1,2.121136934E-1
1.883106750E0,4.786809385E-1,2.309918106E-1,1.793532819E-1
1.893135750E0,5.979652405E-1,3.247350752E-1,1.709190458E-1
1.903164750E0,6.727117300E-1,4.202072620E-1,1.779510230E-1
1.913193750E0,7.006730437E-1,4.857077301E-1,1.924607158E-1
1.923222750E0,6.875369549E-1,5.363959074E-1,2.242911607E-1
1.933251750E0,6.403231025E-1,5.518672466E-1,2.433804423E-1
1.943280750E0,5.538293123E-1,5.212554932E-1,2.618484795E-1
1.953310750E0,4.257355630E-1,4.388735592E-1,2.915981114E-1
1.963339750E0,2.726525068E-1,3.548697233E-1,3.212258518E-1
1.973368750E0,1.098372117E-1,2.814871073E-1,3.415082097E-1
1.983397750E0,-3.035813943E-2,1.947167069E-1,3.665020168E-1
1.993426750E0,-1.300402582E-1,7.986016572E-2,3.882563114E-1
2.003455750E0,-1.855841279E-1,-5.890357122E-2,3.990164995E-1
2.013484750E0,-1.941472441E-1,-1.803738028E-1,4.068171680E-1
2.023513750E0,-1.667751819E-1,-2.205777764E-1,3.936754167E-1
2.033542750E0,-1.062098369E-1,-1.911493242E-1,3.614298701E-1
2.043571750E0,-2.135035396E-2,-1.322739422E-1,3.128614724E-1
2.053601750E0,6.731000543E-2,-7.648950070E-2,2.528551221E-1
2.063630750E0,1.490599960E-1,-1.779609732E-2,1.844600737E-1
2.073659750E0,1.929552853E-1,9.980270267E-2,1.170850322E-1
2.083688750E0,1.737461090E-1,2.647036016E-1,4.220136255E-2
2.093717750E0,4.853918031E-2,4.324822128E-1,-3.224996850E-2
2.103746750E0,-1.584517658E-1,5.968962908E-1,-9.482398629E-2
2.113775750E0,-4.222935438E-1,7.373151779E-1,-1.562726945E-1
2.123804750E0,-6.929468513E-1,8.058565259E-1,-2.264268845E-1
2.133833750E0,-8.863722086E-1,7.875326276E-1,-3.079400957E-1
2.143862750E0,-9.647343755E-1,7.510337234E-1,-3.160927296E-1
2.153892750E0,-8.923134804E-1,7.239629626E-1,-3.463505208E-1
2.163921750E0,-7.317822576E-1,6.412674189E-1,-3.977364004E-1
2.173950750E0,-5.385685563E-1,4.325195253E-1,-5.090133548E-1
2.183979750E0,-3.233548701E-1,3.063395619E-1,-7.079159021E-1
2.194008750E0,-1.293699741E-1,3.871665001E-1,-8.597121239E-1
2.204037750E0,8.597163856E-2,5.935530663E-1,-8.881424665E-1
2.214066750E0,3.540374339E-1,6.124433875E-1,-8.177588582E-1
2.224095750E0,6.184033155E-1,4.349856973E-1,-6.410559416E-1
2.234124750E0,8.720363975E-1,2.524182796E-1,-4.090187252E-1
2.244153750E0,1.099269390E0,1.870028675E-1,-1.698945612E-1
2.254183750E0,1.280466080E0,1.236063093E-1,2.069669031E-2
2.264212750E0,1.361204624E0,3.549205884E-2,1.376817673E-1
2.274241750E0,1.309426427E0,-1.216727942E-1,1.732341647E-1
2.284270750E0,1.158842325E0,-2.734371126E-1,1.361126900E-1
2.294299750E0,9.332245588E-1,-4.103952050E-1,7.023435086E-2
2.304328750E0,6.595984697E-1,-5.524008274E-1,-2.864455059E-2
2.314357750E0,3.744245172E-1,-6.452599168E-1,-1.415593773E-1
2.324386750E0,1.257754415E-1,-5.950983167E-1,-2.268839031E-1
2.334415750E0,-7.278078794E-2,-4.109204710E-1,-2.810624838E-1
2.344444750E0,-2.036378533E-1,-2.031181008E-1,-2.992721796E-1
2.354474750E0,-3.410660326E-1,1.692919582E-1,-2.942028344E-1
2.364503750E0,-4.333635867E-1,6.277977228E-1,-2.909569740E-1
2.374532750E0,-5.024451613E-1,1.084701061E0,-2.847180068E-1
2.384561750E0,-5.400943756E-1,1.475223660E0,-2.554299831E-1
2.394590750E0,-5.776843429E-1,1.620128870E0,-2.211218178E-1
2.404619750E0,-5.806354880E-1,1.446470737E0,-2.374109030E-1
2.414648750E0,-5.398707390E-1,1.137713671E0,-2.781617939E-1
2.424677750E0,-4.165915549E-1,9.090620875E-1,-2.958450913E-1
2.434707167E0,-2.302049249E-1,7.988402247E-1,-2.838228047E-1
2.444736167E0,-4.467182793E-3,7.224444747E-1,-2.132663131E-1
2.454766167E0,2.026678920E-1,7.157772183E-1,-1.165882349E-1
2.464795167E0,3.932032585E-1,6.592919827E-1,-5.860212259E-3
2.474824167E0,5.371894240E-1,5.058392882E-1,8.439884335E-2
2.484853167E0,6.142549515E-1,3.786846995E-1,1.425669193E-1
2.494882167E0,6.127206683E-1,3.407921791E-1,1.590667963E-1
2.504911167E0,5.665785074E-1,3.584907353E-1,1.390065402E-1
2.514940167E0,4.905750751E-1,4.022566080E-1,1.255714297E-1
2.524969167E0,3.856580257E-1,5.013641715E-1,1.419118941E-1
2.534998167E0,2.478730232E-1,6.087193489E-1,1.237451434E-1
2.545027167E0,8.622204512E-2,6.555497050E-1,9.778568894E-2
2.555056167E0,-9.490939230E-2,5.947678685E-1,6.167402491E-2
2.565086167E0,-2.491478026E-1,4.403582513E-1,5.058895051E-2
2.575115167E0,-3.344142437E-1,2.345808744E-1,7.121220231E-2
2.585144167E0,-3.676959276E-1,6.478445232E-2,1.299343109E-1
2.595173167E0,-3.607035279E-1,1.020921511E-3,2.251934409E-1
2.605202167E0,-3.403307199E-1,1.012653783E-1,3.383302987E-1
2.615231167E0,-3.393088579E-1,3.115224838E-1,4.338405728E-1
2.625260167E0,-3.618659973E-1,4.054643512E-1,4.229972959E-1
2.635289167E0,-4.446991086E-1,5.593221188E-1,3.720510304E-1
2.645318167E0,-5.860384703E-1,8.187117577E-1,3.025635779E-1
2.655347167E0,-7.638226151E-1,1.091565371E0,1.702470928E-1
2.665377167E0,-9.181340933E-1,1.411210775E0,-1.794712245E-2
2.675406167E0,-1.015976906E0,1.718622446E0,-1.895186156E-1
2.685435167E0,-9.966434240E-1,2.035139322E0,-2.979402542E-1
2.695464167E0,-8.664146066E-1,2.342775583E0,-3.805480599E-1
2.705493167E0,-6.417089701E-1,2.662297964E0,-4.710195661E-1
2.715522167E0,-3.677037954E-1,2.988525867E0,-4.936481714E-1
2.725551167E0,-6.980542839E-2,3.189138889E0,-4.243136048E-1
2.735580167E0,2.041856498E-1,3.161566496E0,-3.297948241E-1
2.745609167E0,4.206406176E-1,2.867554188E0,-2.345664799E-1
2.755638167E0,6.212691069E-1,2.215278625E0,-4.643412679E-2
2.765667167E0,7.571784258E-1,1.390679598E0,2.267943919E-1
2.775697167E0,8.229457140E-1,8.075487614E-1,5.950381756E-1
2.785726167E0,8.758549690E-1,3.933565617E-1,9.043558836E-1
2.795755167E0,8.273444176E-1,6.749199703E-3,1.092895269E0
2.805784167E0,7.130520940E-1,-2.419170588E-1,1.139824033E0
2.815813167E0,5.530024767E-1,-3.238185942E-1,1.072315097E0
2.825842167E0,3.513228893E-1,-2.559241652E-1,9.531992674E-1
2.835871167E0,1.398364902E-1,-1.131901667E-1,8.353890181E-1
2.845900167E0,-5.578034371E-2,2.059967630E-2,7.346079946E-1
2.855929167E0,-2.409435362E-1,1.022125110E-1,6.549155116E-1
2.865958167E0,-4.394053519E-1,1.403952390E-1,5.942648053E-1
2.875988167E0,-6.171036959E-1,6.461045891E-2,5.488019586E-1
2.886017167E0,-7.480434775E-1,-3.708271310E-2,5.487583876E-1
2.896046167E0,-8.097620010E-1,-8.470163494E-2,6.049814820E-1
2.906075167E0,-8.158725500E-1,-3.711318597E-2,6.948485970E-1
2.916104167E0,-7.148252726E-1,3.981941193E-2,7.891106606E-1
2.926133167E0,-5.345048308E-1,8.489131182E-2,8.420060873E-1
2.936162167E0,-3.419654965E-1,2.021537721E-1,8.473252058E-1
2.946191167E0,-2.067816705E-1,4.104470909E-1,8.456843495E-1
2.956220167E0,-1.493601948E-1,6.181281805E-1,8.823526502E-1
2.966249167E0,-1.604987532E-1,7.991788983E-1,9.295834899E-1
2.976278167E0,-1.975787431E-1,8.474785089E-1,9.503023624E-1
2.986308167E0,-2.282515019E-1,7.638190389E-1,9.393956065E-1
2.996337167E0,-2.083358616E-1,6.481257677E-1,9.029251933E-1
3.006366167E0,-1.311991066E-1,5.117709041E-1,8.210345507E-1
3.016395167E0,-4.244580120E-2,3.857091069E-1,7.485238910E-1
3.026424167E0,6.051276624E-2,3.425295055E-1,6.941396594E-1
3.036453167E0,1.791438162E-1,3.087744713E-1,6.451854706E-1
3.046482167E0,2.820605338E-1,2.806864679E-1,6.120460629E-1
3.056511167E0,3.144400418E-1,2.202388346E-1,6.025185585E-1
3.066540167E0,2.582250834E-1,1.104923710E-1,6.024351716E-1
3.076569167E0,1.620833576E-1,-4.821702372E-3,6.038005948E-1
3.086599167E0,6.209701300E-2,-1.295915991E-1,5.894656181E-1
3.096628167E0,-3.358690068E-3,-2.400637865E-1,5.724525452E-1
3.106657167E0,-1.058713626E-2,-3.087902963E-1,5.584980249E-1
3.116686167E0,4.381538555E-2,-3.471302390E-1,5.474134088E-1
3.126715167E0,1.386868060E-1,-4.128562510E-1,5.408992767E-1
3.136744167E0,2.324210107E-1,-5.500415564E-1,5.508840084E-1
3.146773167E0,2.894446254E-1,-7.261462808E-1,5.714156628E-1
3.156802167E0,2.949951887E-1,-9.138439894E-1,5.809825659E-1
3.166831167E0,2.697628438E-1,-1.089268565E0,5.447156429E-1
3.176860167E0,2.453067750E-1,-1.221243382E0,4.569554627E-1
3.186889167E0,2.287551612E-1,-1.294492364E0,3.275781274E-1
3.196919167E0,2.307813019E-1,-1.313998699E0,1.513602287E-1
3.206948167E0,2.315625995E-1,-1.293286681E0,-6.407889724E-2
3.216977167E0,2.102266848E-1,-1.252534032E0,-3.006429672E-1
3.227006167E0,1.541828662E-1,-1.209478974E0,-5.185565948E-1
3.237035167E0,6.390330195E-2,-1.201414108E0,-7.104690671E-1
3.247064167E0,-5.573389679E-2,-1.236365676E0,-8.532930017E-1
3.257093167E0,-1.840074509E-1,-1.290705085E0,-9.233540893E-1
3.267122167E0,-2.835849524E-1,-1.358853579E0,-9.642237425E-1
3.277151167E0,-3.431313634E-1,-1.394932747E0,-1.005008817E0
3.287180167E0,-3.690892756E-1,-1.376861334E0,-1.024415612E0
