"Time (s)","X (rad/s)","Y (rad/s)","Z (rad/s)"
9.026916639E-3,-4.119597673E-1,4.052069038E-2,3.912283853E-2
1.897691668E-2,-3.881420493E-1,3.915422037E-2,-4.382716864E-2
2.892691665E-2,-3.632928431E-1,1.058991160E-2,-1.340728104E-1
3.887691663E-2,-3.206124902E-1,-2.909891307E-2,-1.801771969E-1
4.882691667E-2,-2.471429855E-1,-6.592617184E-2,-1.338616908E-1
5.877591664E-2,-1.627351493E-1,-5.952313542E-2,-8.029299974E-2
6.872591667E-2,-7.103116065E-2,-6.190266088E-2,-3.078184277E-2
7.867591665E-2,5.105156451E-3,-7.515269518E-2,7.907764055E-3
8.862591663E-2,5.217022449E-2,-6.595905870E-2,2.539517730E-2
9.857591667E-2,4.167923704E-2,-5.113004521E-2,2.168752439E-2
1.085259166E-1,2.021033317E-3,-6.962903589E-2,1.890575141E-2
1.184759166E-1,-4.530893266E-2,-1.147677451E-1,2.757274359E-2
1.284259167E-1,-7.820488513E-2,-1.713409126E-1,5.683855340E-2
1.383759166E-1,-9.985293448E-2,-2.450899780E-1,8.392263204E-2
1.483259167E-1,-1.286923885E-1,-3.570141196E-1,1.055164114E-1
1.582759166E-1,-1.656069905E-1,-4.818109274E-1,1.053004339E-1
1.682259166E-1,-2.029281706E-1,-5.540198684E-1,8.672793210E-2
1.781759167E-1,-1.912792474E-1,-5.243727565E-1,7.696105540E-2
1.881259166E-1,-1.499025673E-1,-4.243041873E-1,8.637139946E-2
1.980759167E-1,-1.092081368E-1,-2.763448060E-1,1.079675034E-1
2.080259167E-1,-9.271062165E-2,-1.006683707E-1,1.198658049E-1
2.179759166E-1,-1.074887663E-1,7.970406860E-2,1.192434281E-1
2.279259167E-1,-1.323195845E-1,2.329469323E-1,1.210920960E-1
2.378759166E-1,-1.539284587E-1,3.196469247E-1,1.094966903E-1
2.478259166E-1,-1.724773049E-1,3.140853643E-1,8.663968742E-2
2.577759167E-1,-1.967810541E-1,2.252663076E-1,6.832193583E-2
2.677259166E-1,-2.439830005E-1,6.738000363E-2,6.326839328E-2
2.776759167E-1,-3.001876771E-1,-1.297863275E-1,7.263872027E-2
2.876259167E-1,-3.434725106E-1,-3.056099713E-1,7.881210744E-2
2.975749166E-1,-3.493469357E-1,-4.256149530E-1,8.342603594E-2
3.075249167E-1,-3.339933753E-1,-4.644231796E-1,9.607567638E-2
3.174749166E-1,-3.246523440E-1,-4.198123217E-1,1.285659671E-1
3.274249167E-1,-3.198321164E-1,-3.291268945E-1,1.780412346E-1
3.373749166E-1,-3.193570077E-1,-2.229027003E-1,2.199708521E-1
3.473252917E-1,-3.260324597E-1,-1.326683760E-1,2.440281063E-1
3.572752916E-1,-3.390060365E-1,-8.826922625E-2,2.457596958E-1
3.672252917E-1,-3.432640135E-1,-1.058013439E-1,2.272873372E-1
3.771752917E-1,-3.435931802E-1,-1.776345223E-1,1.926449388E-1
3.871252916E-1,-3.377812505E-1,-2.946247458E-1,1.569721103E-1
3.970752917E-1,-3.492022157E-1,-4.095161557E-1,1.476867348E-1
4.070252916E-1,-3.762330413E-1,-4.601089060E-1,1.588655263E-1
4.169752917E-1,-4.417196512E-1,-3.968929052E-1,1.735054553E-1
4.269252917E-1,-5.632489920E-1,-1.708483249E-1,1.761062890E-1
4.368752916E-1,-7.045350075E-1,1.783719808E-1,1.733579040E-1
4.468252917E-1,-8.020284772E-1,5.651333928E-1,1.740972400E-1
4.567752916E-1,-8.404765129E-1,9.190284014E-1,1.435550451E-1
4.667252916E-1,-7.218416929E-1,1.298770428E0,7.326712459E-2
4.766752917E-1,-4.655873179E-1,1.776208639E0,-1.011591405E-2
4.866252916E-1,-1.329185814E-1,1.812875986E0,-1.690165401E-1
4.965752917E-1,1.709174812E-1,1.412351012E0,-3.845325708E-1
5.065252917E-1,3.716377020E-1,1.188936353E0,-5.704066753E-1
5.164752916E-1,4.304123521E-1,8.639984131E-1,-6.748108268E-1
5.264252917E-1,3.298772573E-1,4.341929555E-1,-6.857790947E-1
5.363752916E-1,1.014414281E-1,-7.800695300E-2,-5.781767368E-1
5.463252916E-1,-2.271085083E-1,-4.573406577E-1,-4.246754050E-1
5.562752917E-1,-5.133029819E-1,-5.638337731E-1,-3.505721688E-1
5.662252916E-1,-5.488001108E-1,-4.116581380E-1,-3.294100463E-1
5.761742917E-1,-3.158634901E-1,-1.432463825E-1,-3.672719598E-1
5.861242916E-1,-1.877979562E-2,8.591419458E-2,-4.588091373E-1
5.960742916E-1,2.031217068E-1,1.574054211E-1,-6.081690788E-1
6.060242917E-1,3.525899947E-1,5.780957267E-2,-7.611929178E-1
6.159742916E-1,4.441609383E-1,-8.285406232E-2,-8.659171462E-1
6.259242917E-1,4.921287000E-1,-2.881376147E-1,-8.605892658E-1
6.358742916E-1,4.172158241E-1,-4.124915004E-1,-7.878665924E-1
6.458242916E-1,1.890473366E-1,-5.419403315E-1,-7.720425129E-1
6.557742917E-1,-1.317583621E-1,-6.566756964E-1,-8.214409351E-1
6.657242916E-1,-3.111387193E-1,-8.748623729E-1,-8.685985804E-1
6.756742917E-1,-4.959328175E-1,-8.134709001E-1,-9.998055696E-1
6.856242917E-1,-6.217949390E-1,-6.609191298E-1,-1.163793087E0
6.955742916E-1,-7.048392296E-1,-5.233002901E-1,-1.300614834E0
7.055242917E-1,-7.362092137E-1,-4.317175448E-1,-1.380729914E0
7.154742916E-1,-7.382891178E-1,-3.996032774E-1,-1.408586025E0
7.254242916E-1,-7.189602852E-1,-4.216653705E-1,-1.412362814E0
7.353742917E-1,-6.577898860E-1,-3.998636603E-1,-1.416390538E0
7.453242916E-1,-6.179863811E-1,-2.906124890E-1,-1.382017493E0
7.552742917E-1,-7.824333906E-1,2.283750325E-1,-1.171667218E0
7.652242917E-1,-1.025352240E0,9.383987784E-1,-8.490598798E-1
7.751742916E-1,-1.171383739E0,1.430490255E0,-5.464161634E-1
7.851242917E-1,-1.220642328E0,1.549189091E0,-3.616243601E-1
7.950742916E-1,-1.170050979E0,1.329910278E0,-3.332856596E-1
8.050242916E-1,-1.052825928E0,1.064050436E0,-3.849518299E-1
8.149742917E-1,-9.731473923E-1,8.355277181E-1,-3.696216047E-1
8.249242916E-1,-1.074069262E0,5.619179606E-1,-1.923395097E-1
8.348742917E-1,-1.346839547E0,2.383476049E-1,1.579236835E-1
8.448242916E-1,-1.667181849E0,-1.318794638E-1,5.568245649E-1
8.547742916E-1,-1.936128378E0,-4.924525619E-1,9.361096025E-1
8.647242917E-1,-2.074034929E0,-8.357062340E-1,1.255297065E0
8.746742916E-1,-2.087994576E0,-1.181084156E0,1.486855507E0
8.846242917E-1,-1.991761208E0,-1.527556896E0,1.626274943E0
8.945742917E-1,-1.858513951E0,-1.836912394E0,1.664593935E0
9.045232916E-1,-1.730395436E0,-2.081058264E0,1.626084566E0
9.144732917E-1,-1.664436579E0,-2.288239479E0,1.541109800E0
9.244232916E-1,-1.674306750E0,-2.437223673E0,1.451467276E0
9.343732917E-1,-1.788933992E0,-2.069010258E0,1.244815826E0
9.443232917E-1,-1.697933555E0,-6.031553745E-1,4.506185353E-1
9.542732916E-1,-1.516569614E0,2.216474712E-1,-7.726890445E-1
9.642232917E-1,-1.360968828E0,-4.625104368E-1,-1.932883501E0
9.741732916E-1,-1.245941281E0,-1.354013443E0,-2.341712236E0
9.841232916E-1,-1.234867573E0,-1.707046986E0,-2.027589560E0
9.940732917E-1,-1.349863648E0,-1.722730875E0,-1.330245137E0
1.004023292E0,-1.424385071E0,-1.593325019E0,-6.417465806E-1
1.013973292E0,-1.325037122E0,-1.552613258E0,-2.106132954E-1
1.023923292E0,-1.187778711E0,-1.291255951E0,-1.869920269E-2
1.033873292E0,-1.182570100E0,-9.888175130E-1,-1.777743921E-3
1.043823292E0,-1.233859539E0,-7.707413435E-1,-7.111901790E-2
1.053773292E0,-1.271174073E0,-3.269623220E-1,-2.281824052E-1
1.063723292E0,-1.242599607E0,2.304647267E-1,-3.835086823E-1
1.073673292E0,-1.091277003E0,7.532448769E-1,-5.056436658E-1
1.083623292E0,-7.650499344E-1,1.268455148E0,-5.519838333E-1
1.093573292E0,-2.603990436E-1,1.673646331E0,-5.358029604E-1
1.103523292E0,3.253362775E-1,1.852190256E0,-4.800185859E-1
1.113473292E0,9.137499928E-1,1.912110567E0,-4.251710474E-1
1.123423292E0,1.453426957E0,1.863981605E0,-3.661099076E-1
1.133373292E0,1.901947260E0,1.600229025E0,-2.573293746E-1
1.143323292E0,2.220703840E0,1.194379330E0,-9.218825400E-2
1.153273292E0,2.364271402E0,4.904832244E-1,1.382129937E-1
1.163223292E0,2.118217945E0,-5.945909619E-1,4.854581654E-1
1.173173292E0,1.700423479E0,-1.230595589E0,7.708510756E-1
1.183123292E0,1.254226565E0,-1.279329181E0,9.228448868E-1
1.193073292E0,7.650637031E-1,-1.219447017E0,1.053574085E0
1.203023292E0,3.266363740E-1,-1.107971430E0,1.170321107E0
1.212973292E0,4.854561388E-2,-8.569149375E-1,1.205985904E0
1.222923292E0,-9.582764655E-2,-5.702597499E-1,1.174178243E0
1.232873292E0,-1.839718819E-1,-3.617411554E-1,1.074966431E0
1.242823292E0,-1.783843935E-1,-2.485181987E-1,8.789698482E-1
1.252773292E0,-1.987252012E-2,-1.067235246E-1,6.267112494E-1
1.262723292E0,2.019616365E-1,3.533317521E-2,3.950664103E-1
1.272672292E0,3.926112056E-1,8.010890335E-2,2.250699252E-1
1.282622292E0,5.067468882E-1,5.837877095E-2,1.142936200E-1
1.292572292E0,5.290066004E-1,5.298640206E-2,6.011214107E-2
1.302522292E0,4.799734652E-1,9.533734620E-2,1.716945134E-2
1.312472292E0,3.836639822E-1,1.658573300E-1,-3.029260598E-2
1.322422292E0,2.667658925E-1,2.201359570E-1,-8.683753759E-2
1.332372292E0,1.570564508E-1,2.218350619E-1,-1.177650914E-1
1.342322292E0,6.364876777E-2,1.885716021E-1,-8.803267032E-2
1.352272583E0,-2.877730317E-2,1.564437598E-1,-1.504166517E-3
1.362222583E0,-1.459249556E-1,1.394251734E-1,9.575446695E-2
1.372172583E0,-3.126971424E-1,1.350527853E-1,1.731674969E-1
1.382122583E0,-5.181221962E-1,1.172534674E-1,2.358438671E-1
1.392072583E0,-7.265883088E-1,7.129956037E-2,2.992603779E-1
1.402022583E0,-9.024648666E-1,-2.119711135E-3,3.512131572E-1
1.411972583E0,-1.005056739E0,-8.662607521E-2,3.940415680E-1
1.421922583E0,-1.069051623E0,-1.265958548E-1,4.271634817E-1
1.431872583E0,-1.096861601E0,-1.385944635E-1,4.620221257E-1
1.441822583E0,-1.095722556E0,-1.479228884E-1,5.172313452E-1
1.451772583E0,-1.059592724E0,-1.724516600E-1,5.620028377E-1
1.461722583E0,-9.935276508E-1,-1.774674654E-1,5.378721952E-1
1.471672583E0,-8.517240882E-1,-1.667637974E-1,4.965420067E-1
1.481622583E0,-6.562119722E-1,-1.293783039E-1,4.519935250E-1
1.491572583E0,-4.300584495E-1,-6.920418143E-2,3.891698122E-1
1.501522583E0,-2.005295306E-1,2.488446049E-2,3.146601021E-1
1.511472583E0,-7.303995080E-4,1.150971800E-1,2.457268387E-1
1.521422583E0,1.680879295E-1,1.762326509E-1,1.813879907E-1
1.531372583E0,3.025147021E-1,1.956668049E-1,1.063377187E-1
1.541322583E0,3.709159493E-1,2.020186931E-1,3.099726327E-2
1.551272583E0,3.794066608E-1,2.157494277E-1,-3.262698650E-2
1.561222583E0,3.304891884E-1,1.998443753E-1,-7.844781131E-2
1.571172583E0,2.299822867E-1,1.340003759E-1,-1.117543653E-1
1.581122583E0,9.463887662E-2,1.908394136E-2,-1.211605519E-1
1.591072583E0,-3.132357821E-2,-5.358493328E-2,-7.622317970E-2
1.601022583E0,-1.314666867E-1,-9.616760910E-2,-1.102267765E-2
1.610972583E0,-2.024577707E-1,-1.613902748E-1,5.036078766E-2
1.620922583E0,-2.505057454E-1,-2.310296148E-1,8.636780083E-2
1.630872583E0,-2.703585327E-1,-2.696076632E-1,9.179532528E-2
1.640822583E0,-2.686019838E-1,-2.817061245E-1,7.976789773E-2
1.650772583E0,-2.459744364E-1,-2.868215144E-1,5.821439996E-2
1.660722583E0,-2.006984353E-1,-2.791258991E-1,3.274591640E-2
1.670672583E0,-1.449094713E-1,-2.681587338E-1,1.668998599E-2
1.680622583E0,-8.991205692E-2,-2.453817278E-1,2.455908246E-2
1.690572583E0,-4.612835497E-2,-2.130882442E-1,4.520550370E-2
1.700522583E0,-3.405029327E-2,-1.670556962E-1,4.533072561E-2
1.710472583E0,-4.670110717E-2,-1.039070934E-1,1.132987998E-2
1.720422583E0,-8.105023205E-2,-4.081928357E-2,-5.839866027E-2
1.730372583E0,-1.307695806E-1,3.212523088E-2,-1.378492713E-1
1.740322583E0,-1.839395761E-1,8.866655082E-2,-2.155683935E-1
1.750272583E0,-2.315736711E-1,1.171003208E-1,-2.855679989E-1
1.760221583E0,-2.602302432E-1,1.195817962E-1,-3.280618787E-1
1.770172583E0,-2.705486715E-1,9.747250378E-2,-3.387939036E-1
1.780121583E0,-2.429821342E-1,7.267431915E-2,-3.269728720E-1
1.790071583E0,-1.645895839E-1,5.033652857E-2,-3.192094862E-1
1.800021583E0,-5.050106719E-2,1.575027965E-2,-3.193918169E-1
1.809971583E0,6.336718053E-2,2.441664925E-3,-3.277863860E-1
1.819921583E0,1.419553757E-1,4.094857723E-2,-3.433910012E-1
1.829871583E0,1.678673923E-1,1.370567381E-1,-3.578527868E-1
1.839821583E0,1.632935405E-1,2.357044369E-1,-3.568688035E-1
1.849771583E0,1.060805842E-1,2.774689198E-1,-3.393444121E-1
1.859721583E0,1.553858537E-2,3.258887827E-1,-2.972448170E-1
1.869671583E0,-6.856457144E-2,3.390011191E-1,-2.529050708E-1
1.879621583E0,-1.133833826E-1,3.469779789E-1,-2.599374652E-1
1.889571583E0,-1.009520143E-1,3.773976862E-1,-3.575431108E-1
1.899521583E0,-2.425691113E-2,4.574542046E-1,-5.011737943E-1
1.909471583E0,9.884877503E-2,5.290296078E-1,-6.164886355E-1
1.919421583E0,2.243087590E-1,5.210494399E-1,-6.355529428E-1
1.929371583E0,3.213982880E-1,4.887926579E-1,-5.875316262E-1
1.939321583E0,3.514657319E-1,4.382390082E-1,-5.062859058E-1
1.949271583E0,3.197493553E-1,3.989946842E-1,-4.457054138E-1
1.959221583E0,1.235907525E-1,8.416228890E-1,-4.500061274E-1
1.969171583E0,-2.054792941E-1,1.108920097E0,-4.748172164E-1
1.979121583E0,-4.477407634E-1,9.949867725E-1,-5.214781761E-1
1.989071583E0,-5.457698703E-1,1.014154077E0,-5.380089283E-1
1.999021583E0,-5.701165795E-1,1.089118719E0,-4.855957925E-1
2.008971583E0,-5.469095111E-1,1.093080401E0,-3.883717656E-1
2.018921583E0,-4.967831969E-1,9.042437077E-1,-2.628243268E-1
2.028871583E0,-4.490124583E-1,5.779979229E-1,-1.174205244E-1
2.038821583E0,-3.738361597E-1,2.575122118E-1,3.356725350E-2
2.048771583E0,-3.016189337E-1,-3.917845897E-4,1.861045957E-1
2.058721583E0,-2.527036071E-1,-1.423125863E-1,3.080345690E-1
2.068671583E0,-2.089731693E-1,-2.866966724E-1,3.915430307E-1
2.078621583E0,-1.964805424E-1,-3.956551850E-1,4.545877874E-1
2.088571583E0,-2.085742354E-1,-5.069183111E-1,4.979882538E-1
2.098521583E0,-2.210562080E-1,-5.997310281E-1,5.322339535E-1
2.108471583E0,-2.115260810E-1,-6.768772006E-1,5.653764606E-1
2.118421583E0,-1.812769026E-1,-7.601712942E-1,6.134329438E-1
2.128371583E0,-1.408999115E-1,-7.895965576E-1,6.389052868E-1
2.138321583E0,-9.782781452E-2,-7.648642659E-1,6.043782234E-1
2.148271583E0,-5.864259601E-2,-7.294602394E-1,5.048548579E-1
2.158221583E0,-5.242333561E-2,-7.320042849E-1,3.659031689E-1
2.168171583E0,-1.193477735E-1,-7.450301051E-1,2.348969430E-1
2.178121583E0,-2.388755083E-1,-7.715399861E-1,1.438783556E-1
2.188071583E0,-3.924626708E-1,-8.185551763E-1,1.174515337E-1
2.198021583E0,-5.487734079E-1,-8.565694094E-1,1.284357607E-1
2.207972583E0,-6.861647964E-1,-8.794851303E-1,1.550599188E-1
2.217922583E0,-7.840018868E-1,-8.506212234E-1,1.622155607E-1
2.227872583E0,-8.419201374E-1,-7.446702719E-1,1.365724951E-1
2.237822583E0,-8.626776338E-1,-5.589443445E-1,6.673961133E-2
2.247772583E0,-8.417533040E-1,-3.502501845E-1,-2.171739936E-2
2.257722583E0,-7.566876411E-1,-1.653474271E-1,-1.072687805E-1
2.267672583E0,-5.783420205E-1,-3.683342785E-2,-1.860582083E-1
2.277622583E0,-3.221166432E-1,2.217343263E-2,-2.693672180E-1
2.287572583E0,-3.763583302E-2,2.987410873E-2,-3.426653743E-1
2.297522583E0,2.275526971E-1,5.878005549E-2,-4.065239727E-1
2.307472583E0,4.635995030E-1,1.671414524E-1,-4.712107480E-1
2.317422583E0,6.700965166E-1,2.822467387E-1,-5.170615911E-1
2.327372583E0,8.596565723E-1,3.332656920E-1,-5.231152177E-1
2.337322583E0,1.004287243E0,3.534748256E-1,-4.961951971E-1
2.347273042E0,1.085402966E0,3.621456027E-1,-4.450647533E-1
2.357223042E0,1.110000968E0,3.401146233E-1,-3.903394639E-1
2.367173042E0,1.059372306E0,3.162010014E-1,-3.384657800E-1
2.377123042E0,9.424084425E-1,3.038130403E-1,-2.966730595E-1
2.387073042E0,7.373005748E-1,2.549657524E-1,-2.632625997E-1
2.397023042E0,4.715480208E-1,1.647282541E-1,-2.283413410E-1
2.406972042E0,2.385704219E-1,4.101675376E-2,-1.959338039E-1
2.416922042E0,2.394839749E-2,-9.247446060E-2,-1.550199240E-1
2.426872042E0,-1.315697134E-1,-1.969501227E-1,-1.148757488E-1
2.436822042E0,-2.007429153E-1,-2.509379685E-1,-7.462179661E-2
2.446772042E0,-1.714214087E-1,-2.583837211E-1,-4.609159753E-2
2.456722042E0,-8.677789569E-2,-2.268886417E-1,-1.881816611E-2
2.466672042E0,1.367630530E-2,-1.751178354E-1,3.646481317E-3
2.476622042E0,8.287348598E-2,-1.030833200E-1,1.771036908E-2
2.486572042E0,1.034131870E-1,-3.634618595E-2,2.240359411E-2
2.496522042E0,8.832318336E-2,1.495615207E-2,8.634519763E-3
2.506472042E0,5.866595358E-2,5.163965002E-2,-1.231561415E-2
2.516422042E0,3.086841479E-2,6.821063161E-2,-3.781937435E-2
2.526372042E0,1.183529478E-2,6.149759516E-2,-5.261029676E-2
2.536322042E0,3.380557522E-3,4.106156528E-2,-6.428533047E-2
2.546272042E0,6.624553353E-3,1.652692445E-2,-6.250447780E-2
2.556222042E0,2.576362714E-2,-1.414791448E-3,-5.347928777E-2
2.566172042E0,5.358645320E-2,-1.446109172E-2,-4.026938230E-2
2.576122042E0,8.022099733E-2,-8.289029356E-4,-2.790406160E-2
2.586072042E0,9.023879468E-2,2.475765161E-2,-2.357481420E-2
2.596022042E0,7.951557636E-2,6.381291151E-2,-3.006121144E-2
2.605972042E0,5.036422983E-2,9.153141081E-2,-4.430719465E-2
2.615922042E0,2.257813886E-2,1.167006791E-1,-6.081452966E-2
2.625872042E0,2.076812088E-2,1.296043992E-1,-7.042654604E-2
2.635822042E0,3.691087291E-2,1.364993155E-1,-6.430074573E-2
2.645772042E0,6.056335196E-2,1.447951645E-1,-4.894011468E-2
2.655722042E0,9.246084094E-2,1.383042485E-1,-2.755839378E-2
2.665672042E0,1.070965156E-1,1.182186976E-1,-1.658226550E-2
2.675622042E0,1.202429533E-1,9.207977355E-2,-2.813212946E-2
2.685572042E0,1.244282350E-1,5.394186825E-2,-3.830421343E-2
2.695522042E0,1.363117844E-1,-7.264231332E-3,-3.984165564E-2
2.705472042E0,1.649336964E-1,-6.984782964E-2,-1.928902976E-2
2.715422042E0,1.987321377E-1,-1.147404686E-1,3.883400932E-3
2.725372042E0,2.383784801E-1,-1.353332549E-1,2.287676372E-2
2.735322042E0,2.519443631E-1,-1.199260801E-1,4.207176343E-2
2.745272042E0,2.233912051E-1,-7.636547089E-2,4.878033325E-2
2.755222042E0,1.580766439E-1,-2.075973526E-2,4.103479534E-2
2.765172042E0,8.602702618E-2,1.876181923E-2,2.940166928E-2
2.775122042E0,3.445438296E-2,1.382485311E-2,2.057568543E-2
2.785072042E0,3.974051028E-2,-1.909053139E-2,2.158947848E-2
2.795022042E0,1.022824571E-1,-7.334019244E-2,3.955516219E-2
2.804972042E0,2.001181990E-1,-1.411655694E-1,5.879543722E-2
2.814922042E0,3.060012162E-1,-1.856877655E-1,7.006300241E-2
2.824872042E0,3.906487525E-1,-1.880686879E-1,6.588824838E-2
2.834822042E0,4.328582585E-1,-1.602884531E-1,4.936146736E-2
2.844772042E0,4.278324544E-1,-1.095494777E-1,2.636324614E-2
2.854722042E0,3.917317092E-1,-3.682573885E-2,1.354997791E-2
2.864672042E0,3.389699757E-1,4.038701579E-2,1.305285655E-2
2.874622042E0,2.612128556E-1,6.278393418E-2,2.179228514E-2
2.884572042E0,1.858341694E-1,5.398296937E-2,3.914988413E-2
2.894522042E0,1.242147461E-1,1.599164493E-2,5.302708223E-2
2.904472042E0,1.115182936E-1,-1.598501764E-2,4.049792141E-2
2.914422042E0,1.546889246E-1,-3.694223240E-2,9.476356208E-3
2.924372042E0,2.253854275E-1,-5.678482726E-2,-1.313240454E-2
2.934322042E0,2.882067263E-1,-7.721953094E-2,-1.795192808E-2
2.944272042E0,3.270152807E-1,-8.663959056E-2,-8.423864841E-3
2.954222042E0,3.322720826E-1,-9.098614007E-2,3.977943212E-3
2.964172042E0,3.080708385E-1,-9.221461415E-2,1.264057122E-2
2.974122042E0,2.735024989E-1,-9.186680615E-2,1.954002306E-2
2.984072042E0,2.154268473E-1,-7.879535854E-2,2.563799545E-2
2.994022042E0,1.386324614E-1,-6.524412334E-2,2.047945373E-2
3.003972042E0,5.907491222E-2,-3.571169823E-2,1.173786260E-2
3.013922042E0,-7.659643888E-3,-1.517127082E-2,4.203513265E-3
3.023872042E0,-6.942988932E-2,-2.152944542E-2,-2.412492968E-2
3.033822042E0,-1.416798532E-1,-3.241458535E-2,-4.864358902E-2
3.043772042E0,-2.087641060E-1,-3.372806311E-2,-5.157874152E-2
3.053722042E0,-2.643706501E-1,-3.982696682E-2,-4.685109854E-2
3.063672042E0,-2.835707366E-1,-4.698363692E-2,-3.860667720E-2
3.073622042E0,-2.639727890E-1,-6.875631213E-2,-2.730475552E-2
3.083572042E0,-2.126918137E-1,-8.097513020E-2,-1.649250649E-2
3.093522042E0,-1.391161382E-1,-4.186048359E-2,-1.078375429E-2
3.103472042E0,-4.738353938E-2,2.100956254E-2,-8.012826554E-3
3.113422042E0,4.753631353E-2,4.810269922E-2,-7.541147061E-4
3.123372042E0,1.055800095E-1,3.820925206E-2,1.636093482E-3
3.133322042E0,1.157234535E-1,5.123737268E-3,1.101627946E-2
3.143272042E0,7.612438500E-2,-1.819889247E-2,2.173274755E-2
3.153222042E0,2.212347090E-2,-3.918140754E-2,4.337572306E-2
3.163172042E0,-2.354458719E-2,-7.597468793E-2,4.696739465E-2
3.173122042E0,-5.136476457E-2,-1.204859689E-1,3.622313961E-2
3.183072042E0,-5.207521841E-2,-1.553287059E-1,2.709952928E-2
3.193022042E0,-3.493963927E-2,-1.638444364E-1,2.337323502E-2
3.202972042E0,-1.475317962E-2,-1.473945826E-1,2.783685550E-2
3.212922042E0,8.254666813E-3,-1.160076335E-1,2.350202948E-2
3.222872042E0,1.837640069E-2,-7.170505077E-2,1.480730809E-2
3.232822042E0,1.470336877E-2,-3.461573273E-2,8.395748213E-3
3.242772042E0,7.040356286E-3,-1.877068542E-2,3.787844907E-3
3.252722042E0,-1.903598569E-2,-1.851848327E-2,1.030140370E-2
3.262672042E0,-4.130952805E-2,-2.261205576E-2,2.370864898E-2
3.272622042E0,-5.233767629E-2,-3.423062712E-2,3.259002417E-2
