"Time (s)","X (rad/s)","Y (rad/s)","Z (rad/s)"
9.086916689E-3,-5.071458817E-1,-1.919419914E-1,2.537234426E-1
1.903629169E-2,-7.949731946E-1,-2.651469409E-1,2.371490002E-1
2.898629167E-2,-1.054292679E0,-3.120704293E-1,2.002133727E-1
3.893629165E-2,-1.266667008E0,-4.011835158E-1,1.993824542E-1
4.888629168E-2,-1.494469404E0,-4.557844400E-1,1.658397317E-1
5.883529165E-2,-1.728889942E0,-4.914705455E-1,1.601107419E-1
6.878529169E-2,-1.911602736E0,-5.758991241E-1,2.113798857E-1
7.873529167E-2,-2.053616762E0,-8.283018470E-1,3.113509417E-1
8.868529164E-2,-2.199324608E0,-9.070433974E-1,4.118220806E-1
9.863429167E-2,-2.283313513E0,-7.077068090E-1,4.857261479E-1
1.085842917E-1,-2.225122929E0,-5.152003169E-1,5.554006100E-1
1.185342917E-1,-2.052337646E0,-3.929939866E-1,6.449773908E-1
1.284842917E-1,-1.900946617E0,-2.171434760E-1,7.354075909E-1
1.384332917E-1,-1.806241870E0,-2.248847485E-1,7.712230682E-1
1.483832917E-1,-1.663541913E0,-3.656172454E-1,7.613279223E-1
1.583332916E-1,-1.450770855E0,-5.253933072E-1,7.065866590E-1
1.682832917E-1,-1.241410971E0,-5.453909039E-1,5.617876053E-1
1.782322917E-1,-1.048949480E0,-5.085535049E-1,4.133563340E-1
1.881822917E-1,-8.513476849E-1,-4.294764996E-1,3.444712758E-1
1.981322917E-1,-6.574919224E-1,-3.077037036E-1,3.164526820E-1
2.080822916E-1,-4.537836313E-1,-2.169573307E-1,3.401991427E-1
2.180312917E-1,-2.695599794E-1,-2.005328238E-1,3.695216179E-1
2.279812917E-1,-1.070718393E-1,-1.942145973E-1,3.651789725E-1
2.379312917E-1,1.392035838E-2,-2.188336551E-1,3.132177889E-1
2.478812917E-1,1.398481429E-1,-3.057997525E-1,2.761323750E-1
2.578302916E-1,1.734244823E-1,-5.140738487E-1,2.528693974E-1
2.677802917E-1,2.607167065E-1,-3.461855054E-1,1.726509631E-1
2.777302917E-1,6.508189440E-1,1.043696702E-1,-4.775624722E-2
2.876802917E-1,9.755101204E-1,3.408271819E-2,-2.572795451E-1
2.976292917E-1,1.004909277E0,3.748384118E-2,-3.168030381E-1
3.075792917E-1,9.044165015E-1,-1.335144937E-1,-2.365009934E-1
3.175292917E-1,7.351406813E-1,-5.166301727E-1,-1.558876485E-1
3.274792916E-1,4.333439469E-2,-1.292742014E0,-2.607171237E-1
3.374282917E-1,-4.574434757E-1,-1.190539122E0,-2.991774380E-1
3.473782917E-1,-1.052684546E0,-7.954280972E-1,-3.896638155E-1
3.573282917E-1,-1.646799564E0,2.329222411E-1,-4.287132025E-1
3.672782917E-1,-2.142590761E0,1.095112920E0,-3.954986930E-1
3.772272916E-1,-2.481360197E0,1.695383787E0,-3.925657570E-1
3.871772917E-1,-2.636932135E0,2.424410343E0,-4.873778820E-1
3.971272917E-1,-1.583807111E0,9.357373118E-1,-8.840514421E-1
4.070772917E-1,-1.432319164E0,2.048773289E0,-1.169423223E0
4.170262917E-1,-1.190686107E0,2.479741812E0,-1.103396773E0
4.269762916E-1,-7.740135193E-1,2.563116074E0,-1.210128307E0
4.369262917E-1,-2.939635515E-1,1.935420632E0,-1.242504120E0
4.468762917E-1,1.778739393E-1,1.663059354E0,-1.153820157E0
4.568252917E-1,5.409519672E-1,1.775660992E0,-1.076383352E0
4.667752917E-1,8.716834784E-1,1.422281027E0,-1.045451760E0
4.767252917E-1,1.345515490E0,1.109952927E0,-1.004242778E0
4.866752917E-1,1.745458364E0,1.018684506E0,-9.687407017E-1
4.966242916E-1,1.980390787E0,1.125015736E0,-8.899412155E-1
5.065742917E-1,1.920913100E0,1.401447177E0,-8.662308455E-1
5.165242917E-1,1.688831449E0,1.894014239E0,-1.032143712E0
5.264742917E-1,1.499784350E0,2.534850121E0,-1.334609747E0
5.364232917E-1,1.423286915E0,3.100794315E0,-1.667144060E0
5.463732916E-1,1.434810758E0,3.611345530E0,-1.996865749E0
5.563232917E-1,1.477977991E0,4.139310837E0,-2.347591639E0
5.662732917E-1,1.548771143E0,4.702417850E0,-2.745479345E0
5.762222917E-1,1.663970232E0,5.231388092E0,-3.182893038E0
5.861722917E-1,1.806504011E0,5.593113422E0,-3.648087740E0
5.961222916E-1,1.935057163E0,5.806488037E0,-4.123041630E0
6.060722917E-1,2.065011024E0,6.037553787E0,-4.542450428E0
6.160212916E-1,2.213076115E0,6.322129250E0,-4.905933857E0
6.259712917E-1,2.311551332E0,6.566725254E0,-5.213590622E0
6.359212917E-1,2.358621359E0,6.683330536E0,-5.479650021E0
6.458712917E-1,2.367820263E0,6.678113937E0,-5.748876095E0
6.558202917E-1,2.385839701E0,6.537492752E0,-6.068834782E0
6.657702916E-1,2.427138805E0,6.351966858E0,-6.454320908E0
6.757202917E-1,2.533004522E0,6.117704868E0,-6.814537048E0
6.856702917E-1,2.701227665E0,5.842490196E0,-7.120060444E0
6.956192917E-1,2.914500713E0,5.564851761E0,-7.349721909E0
7.055692917E-1,3.151537657E0,5.308279991E0,-7.499880791E0
7.155192916E-1,3.451596022E0,5.029758930E0,-7.581243038E0
7.254692917E-1,3.825134754E0,4.708710194E0,-7.568937778E0
7.354182916E-1,4.269015312E0,4.345003605E0,-7.466644287E0
7.453682917E-1,4.672049522E0,4.004885674E0,-7.273064613E0
7.553182917E-1,5.010729313E0,3.627784014E0,-7.004453659E0
7.652682916E-1,5.249331474E0,3.216489077E0,-6.619813442E0
7.752172917E-1,5.319695950E0,2.772590160E0,-6.085196972E0
7.851672916E-1,5.191479206E0,2.210299015E0,-5.389751911E0
7.951172917E-1,4.843048096E0,1.563705683E0,-4.587767601E0
8.050672917E-1,4.268350601E0,8.803241253E-1,-3.749091864E0
8.150162917E-1,3.487377882E0,1.956214309E-1,-2.876654625E0
8.249662917E-1,2.590650558E0,-4.519774616E-1,-1.974111199E0
8.349162916E-1,1.655311108E0,-1.113713026E0,-1.168239236E0
8.448662917E-1,8.091334105E-1,-1.698563814E0,-4.470127821E-1
8.548152916E-1,7.472253591E-2,-2.099380493E0,2.058928609E-1
8.647652917E-1,-6.138301492E-1,-2.356251717E0,7.608890533E-1
8.747152917E-1,-1.232187867E0,-2.543529034E0,1.232653856E0
8.846652916E-1,-1.713160753E0,-2.648173332E0,1.614214420E0
8.946142917E-1,-2.047237873E0,-2.689996243E0,1.900469899E0
9.045642916E-1,-2.249413729E0,-2.661443949E0,2.110925198E0
9.145142917E-1,-2.337709665E0,-2.613006592E0,2.231939077E0
9.244642917E-1,-2.408251524E0,-2.554634094E0,2.234891176E0
9.344132917E-1,-2.467289686E0,-2.409501076E0,2.195282459E0
9.443632917E-1,-2.378099442E0,-2.116940737E0,2.193094492E0
9.543132916E-1,-2.169947386E0,-1.684965611E0,2.205678225E0
9.642632917E-1,-1.865234375E0,-1.089922428E0,2.203936100E0
9.742122917E-1,-1.554950476E0,-4.841818810E-1,2.129437923E0
9.841622917E-1,-1.367866874E0,5.321234465E-2,1.974691987E0
9.941122917E-1,-1.352996826E0,4.681749046E-1,1.742069483E0
1.004062292E0,-1.481827974E0,7.305936217E-1,1.464755058E0
1.014011458E0,-1.740702152E0,8.400260806E-1,1.157485127E0
1.023961458E0,-1.851201892E0,9.850901365E-1,9.182609320E-1
1.033911458E0,-1.747490406E0,1.067726851E0,6.536830664E-1
1.043861458E0,-1.473554730E0,1.147502065E0,4.331041276E-1
1.053810458E0,-1.081425309E0,1.206886292E0,5.185266137E-1
1.063760458E0,-6.440266967E-1,1.229463935E0,8.618252277E-1
1.073710458E0,-3.120665848E-1,1.299542308E0,1.154164910E0
1.083660458E0,-1.522839665E-1,1.477482080E0,1.449328423E0
1.093609458E0,5.078340322E-2,1.580596328E0,1.745705009E0
1.103559458E0,8.234221488E-2,1.603941560E0,1.958089948E0
1.113509458E0,4.404649138E-2,1.752568126E0,2.039847612E0
1.123459458E0,7.304838300E-2,1.897897482E0,2.031623363E0
1.133408458E0,2.078568041E-1,2.037428617E0,1.910076857E0
1.143358458E0,3.946619928E-1,2.066066980E0,1.646003008E0
1.153308458E0,6.091340780E-1,2.054372311E0,1.379787087E0
1.163258458E0,8.743595481E-1,2.054600954E0,1.080220103E0
1.173207458E0,1.318325043E0,2.011786461E0,8.343232274E-1
1.183157458E0,1.497455597E0,1.812457919E0,6.558725238E-1
1.193107458E0,1.223383307E0,1.404252648E0,5.543980598E-1
1.203057458E0,9.004587531E-1,1.097097039E0,5.574016571E-1
1.213006458E0,9.019240737E-1,8.418291211E-1,4.765841067E-1
1.222956458E0,9.136014581E-1,7.347530723E-1,4.760481715E-1
1.232906458E0,9.082522392E-1,7.107364535E-1,4.967094958E-1
1.242856458E0,8.891205192E-1,6.944433451E-1,4.679999352E-1
1.252805458E0,8.635538816E-1,7.043002248E-1,4.099453986E-1
1.262755458E0,7.814381123E-1,7.430317402E-1,3.064902425E-1
1.272705458E0,6.472771168E-1,8.552672267E-1,1.608020216E-1
1.282655458E0,3.500189185E-1,9.360240102E-1,-4.251100123E-2
1.292604458E0,-9.379474074E-2,1.142833710E0,-3.516861796E-1
1.302554458E0,-5.668454766E-1,1.293265224E0,-7.980356812E-1
1.312504458E0,-1.009917974E0,1.322812676E0,-1.220734715E0
1.322454458E0,-1.289162993E0,1.620569468E0,-1.627048969E0
1.332403458E0,-1.210123301E0,1.888460398E0,-1.986406326E0
1.342353458E0,-1.109932661E0,2.005659580E0,-2.222981691E0
1.352303458E0,-8.805494905E-1,1.622108936E0,-1.929696798E0
1.362253458E0,-6.220345497E-1,1.368311763E0,-1.684440970E0
1.372202458E0,-4.090067148E-1,1.144633412E0,-1.495531797E0
1.382152458E0,-3.491259217E-1,8.260016441E-1,-1.458388686E0
1.392102458E0,-3.879486918E-1,7.822232842E-1,-1.572495580E0
1.402052458E0,-4.817019999E-1,6.301165223E-1,-1.737120032E0
1.412002458E0,-6.292879581E-1,2.346128970E-1,-1.948170185E0
1.421951458E0,-7.747984529E-1,-1.514867395E-1,-2.241114616E0
1.431901458E0,-9.051189423E-1,-2.203153372E-1,-2.699702501E0
1.441851458E0,-1.090008140E0,-1.569985300E-1,-3.293789387E0
1.451801458E0,-1.263332725E0,8.944693208E-2,-3.884048700E0
1.461750458E0,-1.166891694E0,2.798729241E-1,-4.273552418E0
1.471700458E0,-7.268475294E-1,1.877277941E-1,-4.386965275E0
1.481650458E0,-5.603733286E-2,-1.825477034E-1,-4.241328239E0
1.491600458E0,7.454774976E-1,-6.082633138E-1,-3.800690174E0
1.501549458E0,1.243276715E0,-6.440278292E-1,-3.033312559E0
1.511499458E0,1.117784858E0,5.510520563E-2,-1.884808421E0
1.521449458E0,8.312289119E-1,1.082635045E0,-9.437580705E-1
1.531399458E0,8.229171634E-1,1.561436772E0,-6.443186402E-1
1.541348458E0,1.075680852E0,1.299986720E0,-7.606074214E-1
1.551298458E0,1.352049828E0,8.099020123E-1,-1.002852082E0
1.561248458E0,1.429207206E0,5.942482948E-1,-1.244732618E0
1.571198458E0,1.395689964E0,4.310120046E-1,-1.533551574E0
1.581147458E0,1.245713711E0,3.410172462E-1,-1.849601507E0
1.591097458E0,1.021945357E0,3.614311814E-1,-2.142957211E0
1.601047458E0,7.823351622E-1,3.666629493E-1,-2.381536722E0
1.610997458E0,4.556172490E-1,2.408962101E-1,-2.541792393E0
1.620946458E0,5.477917939E-2,5.717790872E-2,-2.654525518E0
1.630896458E0,-3.635477722E-1,-7.113372535E-2,-2.676099300E0
1.640846458E0,-7.153831720E-1,-1.136545315E-1,-2.605007648E0
1.650796458E0,-9.884168506E-1,-6.430163234E-2,-2.440909147E0
1.660745458E0,-1.116203189E0,1.044783294E-1,-2.129895687E0
1.670695458E0,-1.039907694E0,2.199828327E-1,-1.655413270E0
1.680645458E0,-7.487926483E-1,1.427470446E-1,-1.051562667E0
1.690595458E0,-4.099567533E-1,1.215259060E-1,-3.769298792E-1
1.700544458E0,-2.232296467E-1,2.227586359E-1,3.196248710E-1
1.710494458E0,-1.351562440E-1,2.983833849E-1,9.287073612E-1
1.720444458E0,-1.094698757E-1,-2.002844959E-2,1.007489562E0
1.730394458E0,-1.663198471E-1,-4.680885077E-1,6.912350059E-1
1.740343458E0,-2.693133950E-1,-5.063868761E-1,4.514537752E-1
1.750293458E0,-3.460907340E-1,-6.518788338E-1,2.782383263E-1
1.760243458E0,-3.055977225E-1,-9.981173873E-1,1.128021702E-1
1.770193458E0,-1.020600498E-1,-1.235496879E0,-7.594351470E-2
1.780142458E0,2.027019113E-1,-1.273110509E0,-2.047331333E-1
1.790092458E0,4.818115830E-1,-1.260375261E0,-2.240205407E-1
1.800042458E0,7.236062288E-1,-1.171577215E0,-1.885561496E-1
1.809992458E0,1.062633038E0,-9.976155162E-1,-1.525848359E-1
1.819941458E0,1.405532479E0,-1.066169977E0,-2.848658562E-1
1.829891458E0,1.285373330E0,-1.403280139E0,-3.709717095E-1
1.839841458E0,8.668317795E-1,-2.067886591E0,-4.052097499E-1
1.849791458E0,1.023427248E0,-3.213484049E0,-4.115821719E-1
1.859740458E0,1.326619625E0,-4.046123505E0,-3.937889636E-1
1.869690458E0,1.060548067E0,-3.796637058E0,-2.261392474E-1
1.879640458E0,4.814569950E-1,-2.766071320E0,5.233316123E-2
1.889590458E0,-1.685100198E0,-1.276215017E-1,-3.639692366E-1
1.899539458E0,-2.982658625E0,2.033602715E0,-1.495879173E0
1.909489458E0,-2.523091793E0,3.137989521E0,-2.798995733E0
1.919439458E0,-1.100787997E0,3.626166105E0,-3.885890961E0
1.929389458E0,1.468472630E-1,3.317674637E0,-4.458404064E0
1.939338458E0,6.295340657E-1,2.377473116E0,-4.364782810E0
1.949288458E0,7.486612797E-1,1.682501197E0,-3.692771673E0
1.959238458E0,8.728913069E-1,1.501694918E0,-2.997648716E0
1.969188458E0,9.603484273E-1,1.460075259E0,-2.362520695E0
1.979137458E0,1.018166423E0,1.306274176E0,-1.815271258E0
1.989087458E0,1.150894046E0,1.062623143E0,-1.527261019E0
1.999037458E0,1.350856900E0,7.871068120E-1,-1.340451479E0
2.008987458E0,1.624862194E0,4.901539683E-1,-1.252038717E0
2.018937042E0,1.856564403E0,2.287888527E-1,-1.247671366E0
2.028886042E0,2.028597593E0,-2.020286396E-2,-1.305371165E0
2.038836042E0,2.090053320E0,-1.797223836E-1,-1.317546010E0
2.048786042E0,2.050930500E0,-2.314465642E-1,-1.104611635E0
2.058736042E0,2.054082394E0,-4.493457079E-1,-8.914706111E-1
2.068685042E0,2.078692675E0,-7.286686897E-1,-7.936955690E-1
2.078635042E0,2.077360153E0,-9.184558392E-1,-7.616016865E-1
2.088585042E0,2.103373528E0,-1.075118423E0,-8.354476690E-1
2.098535042E0,2.236829758E0,-1.324546218E0,-9.536721110E-1
2.108484042E0,2.456922770E0,-1.791360855E0,-9.328850508E-1
2.118434042E0,2.656665087E0,-2.194275379E0,-7.183451653E-1
2.128384042E0,2.767122269E0,-2.310867310E0,-4.330124855E-1
2.138334042E0,1.924852014E0,-1.305281281E0,-3.736999929E-1
2.148283042E0,1.027873755E0,-5.858951807E-1,-4.743746817E-1
2.158233042E0,8.525599837E-1,-5.087878704E-1,-4.866941273E-1
2.168183042E0,1.095455170E0,-6.543176174E-1,-3.681038320E-1
2.178133042E0,1.400864244E0,-9.461811781E-1,-2.181680351E-1
2.188082042E0,1.622151852E0,-1.272730827E0,-1.330914944E-1
2.198032042E0,1.766891122E0,-1.467366815E0,-1.301021278E-1
2.207982042E0,1.821915746E0,-1.482403278E0,-1.875289381E-1
2.217932042E0,1.802754998E0,-1.335249543E0,-2.765758932E-1
2.227881042E0,1.711827993E0,-1.046688914E0,-3.749839365E-1
2.237831042E0,1.562830329E0,-6.353791356E-1,-4.428894818E-1
2.247781042E0,1.403230786E0,-1.487058699E-1,-5.196012855E-1
2.257731042E0,1.221656322E0,4.898675382E-1,-6.694346070E-1
2.267680042E0,1.028968811E0,1.106964827E0,-7.684019208E-1
2.277630042E0,7.632105350E-1,1.529044986E0,-7.805721164E-1
2.287580042E0,2.390037477E-1,1.579910517E0,-6.330295205E-1
2.297530042E0,-3.455082476E-1,1.046024323E0,-3.905980289E-1
2.307479042E0,-4.130095243E-1,-4.342913926E-1,8.120066673E-2
2.317429042E0,-4.030287266E-1,-2.584041119E0,4.115324318E-1
2.327379042E0,-9.929047823E-1,-4.515538692E0,4.153098762E-1
2.337329042E0,-1.433512807E0,-4.781778336E0,4.304217994E-1
2.347278042E0,-5.374195576E-1,-2.454553127E0,6.569942832E-1
2.357228042E0,-1.976284683E-1,-5.175474286E-1,6.040229797E-1
2.367178042E0,-1.223346233E0,1.713661477E-4,4.148935676E-1
2.377128042E0,-2.385710955E0,-8.643592596E-1,4.026180804E-1
2.387077042E0,-2.979491711E0,-1.989443302E0,3.431928456E-1
2.397027042E0,-3.239190817E0,-1.989501595E0,4.196719527E-1
2.406977042E0,-3.493826866E0,-9.338141680E-1,7.012884617E-1
2.416927042E0,-3.766688585E0,3.352180421E-1,1.246595263E0
2.426877042E0,-3.659933567E0,1.152996182E0,2.004647970E0
2.436826042E0,-3.298718691E0,1.717319727E0,2.563916922E0
2.446776042E0,-3.146028757E0,2.316849709E0,2.504855871E0
2.456726042E0,-3.070445538E0,2.937537670E0,1.977405787E0
2.466676042E0,-2.926312923E0,3.332210064E0,1.391823530E0
2.476625042E0,-2.808781624E0,3.560665607E0,9.909280539E-1
2.486575042E0,-2.739381313E0,3.586090565E0,5.922097564E-1
2.496525042E0,-2.732300997E0,3.152112484E0,3.839091212E-2
2.506475042E0,-3.280012846E0,1.892442942E0,-6.860904396E-2
2.516424042E0,-4.208631516E0,-3.597000241E-1,3.679979146E-1
2.526374042E0,-5.137822628E0,-3.157087803E0,6.256363988E-1
2.536324042E0,-5.257455349E0,-4.662498474E0,4.311646521E-1
2.546274042E0,-3.599860907E0,-3.155257225E0,5.215635300E-1
2.556223042E0,-2.342620134E0,-2.002268791E0,8.023632169E-1
2.566173042E0,-1.782517552E0,-1.808595538E0,8.005447984E-1
2.576123042E0,-1.705907345E0,-2.349782705E0,5.125368237E-1
2.586073042E0,-1.864582181E0,-2.803743362E0,3.649833500E-1
2.596022042E0,-2.102606058E0,-2.345109463E0,3.138872385E-1
2.605972042E0,-2.436691046E0,-6.061866283E-1,2.179687023E-1
2.615922042E0,-2.649634361E0,1.706346989E0,1.090755537E-1
2.625872042E0,-2.473459959E0,3.563501596E0,4.075051248E-1
2.635821042E0,-2.052616596E0,3.765762568E0,1.594480753E0
2.645771042E0,-1.789519072E0,2.467016220E0,1.982181430E0
2.655721042E0,-1.657244205E0,1.634825706E0,1.545216560E0
2.665671042E0,-1.649565578E0,1.785617113E0,1.097946405E0
2.675620042E0,-1.663459063E0,2.123748779E0,6.045088768E-1
2.685570042E0,-1.635005355E0,2.741351843E0,3.846385181E-1
2.695520042E0,-1.362697244E0,2.984054804E0,3.500930071E-1
2.705470042E0,-9.132133722E-1,2.890279055E0,4.016653895E-1
2.715419042E0,-5.245894194E-1,3.247956038E0,5.053787231E-1
2.725369042E0,-2.180406898E-1,3.210011244E0,5.261327624E-1
2.735319042E0,6.269899011E-2,2.781940937E0,6.136361957E-1
2.745269042E0,3.043473065E-1,2.337478399E0,6.501388550E-1
2.755218042E0,5.863872170E-1,1.745552540E0,6.521587372E-1
2.765168042E0,9.048027396E-1,1.177322626E0,6.193938851E-1
2.775118042E0,1.213286877E0,6.081762314E-1,5.769003630E-1
2.785068042E0,1.420581818E0,1.856942028E-1,4.956329465E-1
2.795018042E0,1.393897176E0,-8.826810122E-2,3.441258967E-1
2.804967042E0,1.164868832E0,-2.896877527E-1,1.877948940E-1
2.814917042E0,8.899037838E-1,-4.567426443E-1,1.163865179E-1
2.824867042E0,7.992761731E-1,-4.854949117E-1,9.530946612E-2
2.834817042E0,7.472563982E-1,-3.370749950E-1,1.399704665E-1
2.844766042E0,5.038221478E-1,-1.029090807E-1,3.274783194E-1
2.854716042E0,2.174994946E-1,1.674021631E-1,6.175423265E-1
2.864666042E0,-2.518858314E-1,1.348202467E0,7.643498778E-1
2.874616042E0,-9.285941124E-1,2.428544760E0,7.567359805E-1
2.884565042E0,-1.470015645E0,2.887452841E0,7.093601823E-1
2.894515042E0,-1.676495194E0,3.100841761E0,6.595041752E-1
2.904465042E0,-1.387463927E0,2.992455482E0,6.773244143E-1
2.914415042E0,-7.448568344E-1,2.385876179E0,5.978821516E-1
2.924364042E0,-9.391368181E-2,1.424990416E0,3.145058751E-1
2.934314042E0,3.389379382E-1,5.810096860E-1,1.305834949E-1
2.944264042E0,5.965534449E-1,-1.979776919E-1,-6.134306639E-2
2.954214042E0,8.336298466E-1,-9.132771492E-1,-2.797801197E-1
2.964163042E0,1.200506091E0,-1.431116581E0,-7.034522891E-1
2.974113042E0,1.162686467E0,-1.016463041E0,-8.849336505E-1
2.984063042E0,3.114117682E-1,-4.395695329E-1,-3.622347116E-1
2.994013042E0,-6.720374823E-1,-7.448302507E-1,-2.394350804E-2
3.003962042E0,-7.456153035E-1,-1.789440274E0,3.036761582E-1
3.013912292E0,-2.956678867E-1,-1.900609016E0,1.716765463E-1
3.023862292E0,2.141528018E-2,-1.209458828E0,-3.500297666E-1
3.033812292E0,4.804746509E-1,-5.304653645E-1,-4.544874430E-1
3.043761292E0,8.706977963E-1,1.302273721E-1,-3.774009049E-1
3.053711292E0,1.394721389E0,1.679980457E-1,-3.369918764E-1
3.063661292E0,1.986045480E0,-5.219742060E-1,-2.665925622E-1
3.073611292E0,2.288832426E0,-1.606387258E0,-3.124308884E-1
3.083561292E0,2.342902660E0,-2.817006826E0,-4.436957240E-1
3.093510292E0,2.378148794E0,-3.937841654E0,-6.813205481E-1
3.103460292E0,2.359873056E0,-4.468982220E0,-1.042227268E0
3.113410292E0,2.258542538E0,-4.502455711E0,-1.440208197E0
3.123360292E0,2.026802063E0,-4.081451416E0,-1.758753419E0
3.133309292E0,1.922176957E0,-3.109949589E0,-1.859717488E0
3.143259292E0,1.883349299E0,-1.709923029E0,-1.479013324E0
3.153209292E0,1.702661037E0,-4.052667320E-2,-1.034845233E0
3.163159292E0,1.575809360E0,1.664717197E0,-9.665590525E-1
3.173108292E0,1.842528582E0,3.139492512E0,-8.932009339E-1
3.183058292E0,2.206277370E0,4.155269146E0,-8.308909535E-1
3.193008292E0,2.537033319E0,4.741040230E0,-6.747782826E-1
3.202958292E0,2.811708689E0,4.915911674E0,-3.318829536E-1
3.212907292E0,2.962045670E0,4.493781090E0,1.356858611E-1
3.222857292E0,2.869624853E0,2.070371151E0,5.394631028E-1
3.232807292E0,2.761448860E0,-3.659540415E0,6.651985049E-1
3.242757292E0,2.689882278E0,-6.171065807E0,8.542003632E-1
3.252706292E0,2.910234451E0,-6.491900921E0,1.094520092E0
3.262656292E0,3.488826990E0,-6.131840229E0,1.191774964E0
3.272606292E0,4.106509686E0,-5.703943253E0,1.000509977E0
3.282556292E0,4.261176109E0,-5.008488655E0,7.211892009E-1
3.292505292E0,3.695222139E0,-4.278844833E0,4.322075844E-1
3.302455292E0,2.629858494E0,-3.157696247E0,2.360274196E-1
3.312405292E0,1.774148464E0,-1.784927845E0,9.896127880E-2
3.322355292E0,1.413067222E0,-8.369995952E-1,-1.623278409E-1
3.332304292E0,1.303351879E0,-4.495448172E-1,-3.936698735E-1
3.342254292E0,1.229447603E0,-4.408099055E-1,-5.128042698E-1
3.352204292E0,1.161343932E0,-7.105278969E-1,-5.335666537E-1
