"Time (s)","X (rad/s)","Y (rad/s)","Z (rad/s)"
1.474779168E-2,4.340974689E-1,2.380384505E-1,1.719428450E-1
2.481779167E-2,2.935457528E-1,1.534041166E-1,9.000673890E-2
3.488679168E-2,1.047907546E-1,-2.371925116E-2,1.060219482E-2
4.495679167E-2,-8.721379936E-2,-2.239148021E-1,-6.167189777E-2
5.502579168E-2,-2.414827347E-1,-4.055549204E-1,-1.034571603E-1
6.509579167E-2,-3.280540407E-1,-5.262597203E-1,-1.134646162E-1
7.516579167E-2,-3.539663255E-1,-5.710495710E-1,-9.651546180E-2
8.523479167E-2,-3.329231143E-1,-5.438174009E-1,-5.830543116E-2
9.530479167E-2,-2.710794508E-1,-4.766114950E-1,-1.513479277E-2
1.053737917E-1,-1.931434125E-1,-3.893842399E-1,2.367232926E-2
1.154437917E-1,-1.240889728E-1,-2.845270634E-1,4.170592129E-2
1.255137917E-1,-6.142613664E-2,-1.656866521E-1,4.179856554E-2
1.355827917E-1,5.819742568E-3,-7.039395720E-2,2.357615344E-2
1.456527917E-1,5.755514279E-2,-1.250455435E-2,-4.955392331E-3
1.557217917E-1,9.337706119E-2,1.218401361E-2,-3.399849311E-2
1.657917917E-1,9.539083391E-2,7.916535251E-3,-5.750102550E-2
1.758617917E-1,7.181040943E-2,-1.940296963E-2,-7.018139958E-2
1.859307917E-1,2.790424600E-2,-5.093573779E-2,-8.436209708E-2
1.960007917E-1,-2.960645407E-2,-3.704016283E-2,-9.944624454E-2
2.060697917E-1,-8.712276071E-2,1.311667450E-2,-1.067642570E-1
2.161397917E-1,-1.242088750E-1,5.702340975E-2,-7.700156420E-2
2.262097917E-1,-1.208664551E-1,3.612890467E-2,5.284456909E-2
2.362787917E-1,-1.412585527E-1,4.600816593E-2,1.552268714E-1
2.463487917E-1,-1.445963532E-1,4.730909690E-2,2.236134708E-1
2.564177917E-1,-1.624174267E-1,1.047620028E-1,2.664522827E-1
2.664877917E-1,-1.899973303E-1,1.795367151E-1,2.957240343E-1
2.765577917E-1,-2.325282842E-1,2.129753679E-1,3.015526235E-1
2.866267917E-1,-2.952366769E-1,2.184595168E-1,3.023463488E-1
2.966967917E-1,-3.777073026E-1,2.084966302E-1,3.262447417E-1
3.067657917E-1,-4.743175507E-1,1.969581842E-1,3.729724288E-1
3.168357917E-1,-5.490279794E-1,2.022096813E-1,4.332224429E-1
3.269047917E-1,-5.718545914E-1,2.646199465E-1,4.922932386E-1
3.369747917E-1,-5.436829329E-1,3.860688806E-1,5.379036069E-1
3.470447917E-1,-4.437979460E-1,5.911480784E-1,5.624302626E-1
3.571137917E-1,-2.968508303E-1,8.476605415E-1,5.581513643E-1
3.671837917E-1,-1.451399177E-1,1.132811785E0,5.315134525E-1
3.772527917E-1,-3.432551771E-2,1.398429632E0,4.828090668E-1
3.873227917E-1,2.406917699E-2,1.599495769E0,4.190319180E-1
3.973927917E-1,3.245253861E-2,1.728729129E0,3.537535667E-1
4.074617917E-1,-7.054221351E-5,1.800840855E0,2.836886942E-1
4.175317917E-1,-5.437665805E-2,1.883149028E0,2.361198217E-1
4.276007917E-1,-1.046129167E-1,2.018590927E0,2.165754586E-1
4.376707917E-1,-1.280601919E-1,2.230265379E0,2.196527421E-1
4.477407917E-1,-1.136450768E-1,2.445723772E0,2.585347295E-1
4.578097917E-1,-8.054731041E-2,2.569501638E0,3.429071307E-1
4.678797917E-1,-3.922469541E-2,2.542485714E0,4.563531578E-1
4.779487917E-1,-8.712062612E-3,2.462821007E0,5.552645326E-1
4.880187917E-1,2.252137288E-3,2.398941278E0,6.176617146E-1
4.980887917E-1,-2.224902622E-3,2.441057682E0,6.441066265E-1
5.081577917E-1,-1.157307066E-2,2.585871458E0,6.459451914E-1
5.182277917E-1,-1.138478518E-2,2.693334579E0,6.362646222E-1
5.282967917E-1,1.180929504E-2,2.660984516E0,6.152001619E-1
5.383667917E-1,2.201372758E-2,2.516489506E0,5.801337957E-1
5.484367917E-1,8.897652850E-3,2.176272154E0,5.431554317E-1
5.585057917E-1,-4.202464968E-2,1.788766384E0,4.936096966E-1
5.685757917E-1,-1.805747449E-1,1.721847892E0,4.471734762E-1
5.786447917E-1,-3.679126799E-1,1.892184734E0,4.007396698E-1
5.887147917E-1,-5.325121284E-1,2.002561331E0,3.678268194E-1
5.987847917E-1,-6.446362734E-1,2.060106277E0,3.894948363E-1
6.088537917E-1,-7.137230635E-1,2.271226645E0,4.756591618E-1
6.189237917E-1,-7.294562459E-1,2.600018740E0,6.358328462E-1
6.289927917E-1,-7.027323842E-1,2.887442589E0,7.687409520E-1
6.390627917E-1,-6.404058933E-1,3.011714697E0,8.346986771E-1
6.491317917E-1,-5.782287121E-1,3.006729126E0,8.331809044E-1
6.592017917E-1,-5.541630387E-1,2.948003292E0,7.751737833E-1
6.692717917E-1,-5.350770950E-1,2.813987970E0,6.742277741E-1
6.793407917E-1,-5.250071287E-1,2.367557287E0,5.618681908E-1
6.894107917E-1,-6.403647065E-1,-3.019528650E-2,3.123783767E-1
6.994797917E-1,-7.573850751E-1,-1.045431137E0,4.010026157E-2
7.095497917E-1,-7.800504565E-1,-5.251433253E-1,-1.657694876E-1
7.196197917E-1,-6.891269088E-1,6.499291956E-2,-3.469986320E-1
7.296887917E-1,-5.052123666E-1,1.772704422E-1,-5.487784147E-1
7.397587917E-1,-2.419996411E-1,1.651578546E-1,-6.988912225E-1
7.498277917E-1,9.021358192E-2,3.765022755E-1,-7.290889025E-1
7.598977917E-1,4.673552811E-1,5.842064619E-1,-6.502526999E-1
7.699677917E-1,8.509406447E-1,8.103113770E-1,-5.736520290E-1
7.800367917E-1,1.206580877E0,1.012350559E0,-6.124127507E-1
7.901067917E-1,1.492499471E0,8.946941495E-1,-7.724727988E-1
8.001757917E-1,1.680994630E0,4.006628394E-1,-1.010481119E0
8.102459583E-1,1.777937889E0,-2.372246981E-1,-1.208736420E0
8.203149583E-1,1.792571187E0,-5.266852975E-1,-1.275590181E0
8.303849583E-1,1.739865184E0,-2.219809741E-1,-1.220469594E0
8.404549583E-1,1.595840812E0,3.557913005E-1,-1.097534895E0
8.505239583E-1,1.401261568E0,9.072018266E-1,-9.712132812E-1
8.605939583E-1,1.206442118E0,1.123744011E0,-8.900960684E-1
8.706629583E-1,1.063256025E0,1.446502090E0,-8.298259377E-1
8.807329583E-1,9.581770301E-1,1.798269391E0,-7.273789048E-1
8.908029583E-1,8.484039903E-1,1.876110673E0,-6.072918773E-1
9.008719583E-1,5.908384919E-1,1.543807387E0,-5.140846968E-1
9.109419583E-1,3.811977804E-1,5.416679382E-1,-6.113784313E-1
9.210109583E-1,2.681985199E-1,5.343808979E-2,-7.766944170E-1
9.310809583E-1,2.342713177E-1,3.354991972E-2,-9.070073366E-1
9.411509583E-1,2.682870626E-1,1.193455160E-1,-9.687668681E-1
9.512199583E-1,3.490083516E-1,2.094020993E-1,-9.580281973E-1
9.612899583E-1,4.418136775E-1,3.123766780E-1,-8.804220557E-1
9.713589583E-1,4.930714667E-1,5.501424074E-1,-6.962535977E-1
9.814289583E-1,4.265907109E-1,8.262096643E-1,-4.416284561E-1
9.914979583E-1,2.482493073E-1,9.149800539E-1,-2.263895273E-1
1.001567958E0,-3.236078843E-2,6.938301325E-1,-1.308142692E-1
1.011637958E0,-3.815877140E-1,3.263981044E-1,-1.885711700E-1
1.021706958E0,-7.673915625E-1,-1.374140233E-1,-3.866506815E-1
1.031776958E0,-1.123874664E0,-4.905099273E-1,-6.661718488E-1
1.041845958E0,-1.390668035E0,-6.441959143E-1,-9.584702849E-1
1.051915958E0,-1.534077168E0,-5.333655477E-1,-1.208324909E0
1.061985958E0,-1.513144732E0,-1.765424460E-1,-1.397862554E0
1.072054958E0,-1.410301447E0,1.413375586E-1,-1.550154924E0
1.082124958E0,-1.289297223E0,2.970163524E-1,-1.688538074E0
1.092193958E0,-1.177668691E0,3.253258765E-1,-1.816399932E0
1.102263958E0,-1.111210346E0,1.754247844E-1,-1.926492095E0
1.112333958E0,-1.111384273E0,-1.024362147E-1,-2.019495487E0
1.122402958E0,-1.189021230E0,-3.484055102E-1,-2.102017164E0
1.132472958E0,-1.369732857E0,-5.359904766E-1,-2.155605555E0
1.142541958E0,-1.654440761E0,-7.250362635E-1,-2.150169611E0
1.152611958E0,-1.998212814E0,-9.326909184E-1,-2.061485052E0
1.162680958E0,-2.347227573E0,-1.055299401E0,-1.859321356E0
1.172750958E0,-2.642663479E0,-1.085551858E0,-1.565424204E0
1.182820958E0,-2.844691992E0,-1.041380405E0,-1.220818520E0
1.192889958E0,-2.966816187E0,-1.087354660E0,-8.817169666E-1
1.202959958E0,-3.026120424E0,-1.308114409E0,-5.765546560E-1
1.213028958E0,-3.061172962E0,-1.627117634E0,-3.307076693E-1
1.223098958E0,-3.080364943E0,-1.826561570E0,-1.443319321E-1
1.233168958E0,-3.107663870E0,-1.753875494E0,-2.232025005E-2
1.243237958E0,-3.145492315E0,-1.453237414E0,1.475574635E-2
1.253307958E0,-3.191091061E0,-1.119928718E0,-7.818834484E-2
1.263376958E0,-3.206476212E0,-7.953189015E-1,-3.149851561E-1
1.273446958E0,-3.161994219E0,-4.731182158E-1,-6.381138563E-1
1.283515958E0,-3.051211834E0,-1.333119124E-1,-9.817953110E-1
1.293585958E0,-2.890378237E0,2.077736259E-1,-1.294417262E0
1.303655958E0,-2.692546129E0,4.535067081E-1,-1.512763977E0
1.313724958E0,-2.495063543E0,5.617140532E-1,-1.638352156E0
1.323794958E0,-2.311757565E0,6.095913053E-1,-1.694515347E0
1.333863958E0,-2.150166035E0,6.398367286E-1,-1.705868840E0
1.343933958E0,-2.017835379E0,6.415883303E-1,-1.719491720E0
1.354003958E0,-1.886014819E0,5.966451764E-1,-1.791008830E0
1.364072958E0,-1.741837621E0,5.355562568E-1,-1.920986891E0
1.374142958E0,-1.566255689E0,6.523664594E-1,-2.072877169E0
1.384211958E0,-1.380574584E0,9.378767610E-1,-2.170775890E0
1.394281958E0,-1.226375103E0,1.068700790E0,-2.218797445E0
1.404350958E0,-1.127623677E0,9.256069660E-1,-2.180135489E0
1.414420958E0,-1.098492265E0,5.810216069E-1,-2.002828121E0
1.424490958E0,-1.128557801E0,1.840817183E-1,-1.657827377E0
1.434559958E0,-1.215210319E0,-1.106087565E-1,-1.202810526E0
1.444629958E0,-1.339414358E0,-3.068312705E-1,-7.180697322E-1
1.454698958E0,-1.476786137E0,-4.052459002E-1,-3.157943785E-1
1.464768958E0,-1.607225418E0,-4.264409244E-1,-4.916747287E-2
1.474838958E0,-1.729744077E0,-3.505295217E-1,5.572389066E-2
1.484907958E0,-1.845331669E0,-1.534292400E-1,3.253226634E-3
1.494977958E0,-1.940561891E0,1.021454185E-1,-1.638113409E-1
1.505046958E0,-1.980260849E0,3.246972561E-1,-3.727376461E-1
1.515116958E0,-1.964527965E0,4.714512825E-1,-5.563078523E-1
1.525185958E0,-1.874808788E0,5.761259794E-1,-6.518386006E-1
1.535255958E0,-1.690941453E0,7.180317044E-1,-6.150114536E-1
1.545325958E0,-1.390250325E0,8.055631518E-1,-4.487769604E-1
1.555394958E0,-1.115360379E0,7.272561789E-1,-2.216134816E-1
1.565464958E0,-8.875879645E-1,6.648612618E-1,2.425779961E-2
1.575533958E0,-7.124578953E-1,6.372819543E-1,2.391360849E-1
1.585603958E0,-6.043740511E-1,6.820230484E-1,4.124380648E-1
1.595673958E0,-5.948691368E-1,7.468437552E-1,5.954982042E-1
1.605742958E0,-6.667342782E-1,7.821982503E-1,8.290782571E-1
1.615812958E0,-7.550237179E-1,8.374662995E-1,1.085584760E0
1.625881958E0,-7.889417410E-1,8.738471866E-1,1.298675179E0
1.635951958E0,-7.859895229E-1,8.945452571E-1,1.415294528E0
1.646020958E0,-7.897096872E-1,8.626433015E-1,1.411178350E0
1.656090958E0,-8.261445761E-1,6.858963370E-1,1.280035138E0
1.666160958E0,-8.838129640E-1,4.147574902E-1,1.050441384E0
1.676229958E0,-9.542543888E-1,1.520787477E-1,8.158648014E-1
1.686299958E0,-1.028089762E0,-2.604944445E-2,6.904038191E-1
1.696368958E0,-1.073357940E0,-1.510935575E-1,7.118694782E-1
1.706438958E0,-1.078872323E0,-2.221373618E-1,8.779916167E-1
1.716508958E0,-9.882308841E-1,-1.100338995E-1,1.111281514E0
1.726577958E0,-7.892711759E-1,1.762463301E-1,1.311997890E0
1.736647958E0,-4.868954718E-1,5.106856227E-1,1.346982241E0
1.746716958E0,-1.433317214E-1,7.315572500E-1,1.223031521E0
1.756786958E0,1.548488587E-1,8.108553886E-1,9.931132197E-1
1.766855958E0,3.821437955E-1,7.945581675E-1,7.542186379E-1
1.776925958E0,5.375511050E-1,7.072346807E-1,5.926893353E-1
1.786995958E0,6.063663363E-1,5.527404547E-1,5.663461685E-1
1.797064958E0,6.052560806E-1,3.578258455E-1,6.615549922E-1
1.807134958E0,5.803148150E-1,1.586035341E-1,8.351203799E-1
1.817203167E0,5.775536895E-1,-3.210326657E-2,1.052327991E0
1.827273167E0,6.290965080E-1,-1.409274787E-1,1.292735815E0
1.837342167E0,7.381328940E-1,-2.275098860E-1,1.477487683E0
1.847412167E0,8.893868327E-1,-2.799555063E-1,1.600242376E0
1.857482167E0,1.029825449E0,-4.120819569E-1,1.721356153E0
1.867551167E0,1.097762585E0,-6.190295815E-1,1.881481647E0
1.877621167E0,1.098972321E0,-8.567863703E-1,2.075841904E0
1.887690167E0,1.127155423E0,-1.020739317E0,2.247973204E0
1.897760167E0,1.204235554E0,-1.034505010E0,2.366278410E0
1.907830167E0,1.296428084E0,-8.898109794E-1,2.483024359E0
1.917899167E0,1.377329469E0,-6.733986139E-1,2.634837151E0
1.927969167E0,1.376752257E0,-4.584088326E-1,2.746196985E0
1.938038167E0,1.286545753E0,-3.279376626E-1,2.727092981E0
1.948108167E0,1.179565787E0,-2.949126065E-1,2.567685366E0
1.958177167E0,1.101969838E0,-3.285174966E-1,2.332466125E0
1.968247167E0,1.092408776E0,-4.533212185E-1,2.075447321E0
1.978317167E0,1.164916396E0,-6.740253568E-1,1.769565821E0
1.988386167E0,1.287701368E0,-7.322452664E-1,1.498722672E0
1.998456167E0,1.361039639E0,-6.601030231E-1,1.334416866E0
2.008525167E0,1.306000352E0,-7.912951708E-1,1.175486684E0
2.018595167E0,1.119620442E0,-9.284537435E-1,9.635158181E-1
2.028664167E0,8.819921017E-1,-8.878253698E-1,5.526952744E-1
2.038734167E0,6.489151716E-1,-7.184298635E-1,-6.011252105E-2
2.048804167E0,4.436882138E-1,-5.641989708E-1,-7.768639922E-1
2.058873167E0,3.118966818E-1,-6.795148253E-1,-1.512584567E0
2.068943167E0,2.302209884E-1,-9.699879289E-1,-1.999670267E0
2.079012167E0,1.947804391E-1,-5.384362936E-1,-2.096297026E0
2.089082167E0,1.342082918E-1,3.453361988E-2,-1.962230682E0
2.099152167E0,2.921061777E-2,-1.927888254E-3,-1.822072983E0
2.109221167E0,-1.128221527E-1,-5.153310299E-1,-1.720599890E0
2.119291167E0,-2.644772232E-1,-1.245620370E0,-1.708314776E0
2.129360167E0,-3.709466755E-1,-1.820909500E0,-1.829736471E0
2.139430167E0,-3.917460144E-1,-2.011399031E0,-1.998329401E0
2.149499167E0,-2.672458887E-1,-1.531327963E0,-2.124676228E0
2.159569167E0,1.999777183E-2,-5.276294351E-1,-2.171863794E0
2.169639167E0,3.759396374E-1,-4.670777544E-2,-2.252718925E0
2.179708167E0,6.097851396E-1,3.227951825E-1,-2.346452475E0
2.189778167E0,6.671229601E-1,7.894883156E-1,-2.439900637E0
2.199847167E0,6.131736040E-1,1.314334273E0,-2.462005377E0
2.209917167E0,5.060950518E-1,1.382454753E0,-2.430346251E0
2.219986167E0,4.227100611E-1,1.286594391E0,-2.365226269E0
2.230056167E0,3.243515491E-1,8.374565840E-1,-2.032690287E0
2.240126167E0,2.101987004E-1,3.310438097E-1,-1.518959284E0
2.250195167E0,9.031092376E-2,-1.544120908E-1,-1.066168904E0
2.260265167E0,-4.473307356E-2,-6.400555968E-1,-7.757573128E-1
2.270334167E0,-1.893943995E-1,-8.880978823E-1,-6.377027631E-1
2.280404167E0,-3.244042099E-1,-7.458786368E-1,-5.394309759E-1
2.290474167E0,-4.089204073E-1,-4.765918255E-1,-4.022347629E-1
2.300543167E0,-4.267865419E-1,-2.558143437E-1,-1.853256971E-1
2.310613167E0,-3.720141053E-1,-9.552506357E-2,9.692675620E-2
2.320682167E0,-2.561045885E-1,4.440847784E-2,3.651868701E-1
2.330752167E0,-1.104541793E-1,2.377862036E-1,5.607830286E-1
2.340821167E0,-1.740149409E-2,3.681848645E-1,6.021459699E-1
2.350891167E0,-4.028577358E-2,2.617231607E-1,4.587736428E-1
2.360961167E0,-1.429480016E-1,5.490007252E-2,2.260529250E-1
2.371030167E0,-2.524380088E-1,3.734478354E-2,1.138057560E-3
2.381100167E0,-3.015921414E-1,1.536846757E-1,-1.776908785E-1
2.391169167E0,-2.554196119E-1,2.235428542E-1,-2.816625535E-1
2.401239167E0,-1.306850761E-1,1.815050989E-1,-3.142886758E-1
2.411308167E0,3.826665506E-2,1.825466603E-1,-2.907958627E-1
2.421378167E0,1.292577684E-1,1.449770629E-1,-2.116433680E-1
2.431448167E0,4.540096223E-2,-1.448662672E-2,-6.842788309E-2
2.441517167E0,-2.045499682E-1,-2.248643935E-1,4.871976376E-2
2.451587167E0,-5.388875008E-1,-4.515931308E-1,7.634686679E-2
2.461656167E0,-8.690369129E-1,-5.832829475E-1,3.504551202E-2
2.471726167E0,-1.145793200E0,-6.548269391E-1,-6.979754567E-2
2.481795167E0,-1.365941763E0,-7.429921627E-1,-2.476138771E-1
2.491865167E0,-1.532272220E0,-7.700940967E-1,-4.725236595E-1
2.501935167E0,-1.658247828E0,-6.525865197E-1,-6.737977266E-1
2.512004167E0,-1.737314701E0,-5.517001152E-1,-8.614349961E-1
2.522074167E0,-1.768704295E0,-3.397586942E-1,-1.128560662E0
2.532143167E0,-1.763805866E0,2.726826072E-1,-1.436275363E0
2.542213167E0,-1.672489762E0,1.107825160E0,-1.693044305E0
2.552282167E0,-1.461276293E0,1.776113391E0,-1.864523888E0
2.562352167E0,-1.122222543E0,2.009927034E0,-1.916623235E0
2.572422167E0,-6.792983413E-1,1.762084484E0,-1.825637221E0
2.582491167E0,-2.299423516E-1,1.148773432E0,-1.633874655E0
2.592561167E0,7.226917893E-2,5.212493539E-1,-1.469191909E0
2.602630167E0,1.925303787E-1,2.227109671E-1,-1.393204451E0
2.612700167E0,1.865779459E-1,3.239696622E-1,-1.360139370E0
2.622769167E0,8.643247932E-2,6.515728831E-1,-1.282801509E0
2.632839167E0,-3.830598667E-2,9.359856844E-1,-1.188643575E0
2.642909167E0,-1.691250056E-1,1.049258232E0,-1.114641666E0
2.652978167E0,-3.122640550E-1,8.717392087E-1,-1.126341462E0
2.663048167E0,-4.529978633E-1,4.993394315E-1,-1.237274528E0
2.673117167E0,-5.311730504E-1,1.316208094E-1,-1.387332678E0
2.683187167E0,-5.264917016E-1,-1.149381604E-2,-1.493136168E0
2.693256167E0,-4.834355414E-1,2.619284205E-2,-1.504064560E0
2.703326167E0,-4.433623850E-1,1.210386902E-1,-1.495321751E0
2.713396167E0,-4.046139419E-1,1.644069254E-1,-1.469057679E0
2.723465167E0,-3.522066176E-1,1.673027128E-1,-1.470615864E0
2.733535167E0,-2.596918643E-1,8.022879064E-2,-1.474193335E0
2.743604167E0,-1.242552847E-1,-3.362238035E-2,-1.452144265E0
2.753674167E0,2.484551445E-2,-1.064587757E-1,-1.399155617E0
2.763743167E0,1.889690757E-1,-9.877475351E-2,-1.323065042E0
2.773813167E0,3.236267865E-1,7.363190502E-2,-1.229171872E0
2.783883167E0,3.809950054E-1,4.068063796E-1,-1.114864707E0
2.793952167E0,3.174783289E-1,7.600227594E-1,-1.007049561E0
2.804022167E0,1.389796138E-1,9.406471252E-1,-9.340493679E-1
2.814091708E0,-1.214956492E-1,7.626103163E-1,-9.478788972E-1
2.824161708E0,-3.905257881E-1,2.362863123E-1,-1.044176102E0
2.834231708E0,-6.136547327E-1,-3.027598858E-1,-1.179121971E0
2.844300708E0,-6.820558310E-1,-4.939708412E-1,-1.296157837E0
2.854370708E0,-6.298248768E-1,-4.022220075E-1,-1.356048346E0
2.864439708E0,-5.659402013E-1,-3.098762631E-1,-1.373086095E0
2.874509708E0,-5.005721450E-1,-1.914217919E-1,-1.354038596E0
2.884578708E0,-4.419031143E-1,-3.540853783E-2,-1.274792433E0
2.894648708E0,-3.632346690E-1,1.612771004E-1,-1.148736954E0
2.904717708E0,-2.563412786E-1,3.172507584E-1,-9.873443842E-1
2.914787708E0,-1.490164548E-1,4.298694730E-1,-7.973203659E-1
2.924857708E0,-3.563479707E-2,5.476532578E-1,-6.215449572E-1
2.934926708E0,5.487912521E-2,6.407299638E-1,-4.975598752E-1
2.944996708E0,8.505928516E-2,6.593804955E-1,-4.423099756E-1
2.955065708E0,6.034114957E-2,5.826340318E-1,-4.536483586E-1
2.965135708E0,1.029476989E-4,4.574070275E-1,-4.644509554E-1
2.975204708E0,-7.425996661E-2,3.081056774E-1,-4.844771326E-1
2.985274708E0,-1.406179368E-1,1.412048042E-1,-5.347282887E-1
2.995344708E0,-2.156732678E-1,-5.005943775E-2,-6.011016965E-1
3.005413708E0,-3.222120404E-1,-2.845739722E-1,-6.619604230E-1
3.015483708E0,-4.483816922E-1,-5.947709680E-1,-6.965706348E-1
3.025552708E0,-5.640858412E-1,-1.027470946E0,-6.871545911E-1
3.035622708E0,-6.720959544E-1,-1.461296201E0,-6.334516406E-1
3.045692708E0,-7.597984672E-1,-1.853454113E0,-6.044080257E-1
3.055761708E0,-8.537183404E-1,-2.216635466E0,-6.244427562E-1
3.065831708E0,-9.173499346E-1,-2.482631445E0,-6.513491273E-1
3.075900708E0,-9.529558420E-1,-2.533963919E0,-7.622585893E-1
3.085970708E0,-1.069595218E0,-2.299916983E0,-1.248727202E0
3.096039708E0,-1.040642381E0,-2.046578884E0,-1.756763458E0
3.106109708E0,-8.531459570E-1,-1.679213166E0,-2.345788240E0
3.116178708E0,-6.098312736E-1,-1.304248095E0,-2.884642839E0
3.126248708E0,-3.610798717E-1,-8.300436139E-1,-3.293361425E0
3.136318708E0,-1.241618544E-1,-3.247647882E-1,-3.554577827E0
3.146387708E0,1.196507737E-1,2.102030963E-1,-3.620449781E0
3.156457708E0,3.544595540E-1,5.248664618E-1,-3.559660673E0
3.166526708E0,5.343761444E-1,5.591650605E-1,-3.425390005E0
3.176596708E0,6.599788070E-1,3.965804577E-1,-3.199672699E0
3.186665708E0,7.084065676E-1,1.158548445E-1,-2.900106192E0
3.196735708E0,7.023753524E-1,-2.762143910E-1,-2.675702810E0
3.206805708E0,6.805793047E-1,-7.005636096E-1,-2.580504179E0
3.216874708E0,6.624162793E-1,-1.128872633E0,-2.597368956E0
3.226944708E0,6.894411445E-1,-1.514446735E0,-2.736448050E0
3.237013708E0,7.682622075E-1,-1.835358143E0,-3.019257784E0
3.247083708E0,9.001696110E-1,-2.030666590E0,-3.413626671E0
3.257152708E0,1.064526439E0,-2.116691828E0,-3.869257927E0
3.267222708E0,1.219547629E0,-2.142419338E0,-4.349687576E0
3.277292708E0,1.358333230E0,-2.021418333E0,-4.805840969E0
3.287361708E0,1.499853373E0,-1.816966772E0,-5.222813129E0
3.297431708E0,1.698641062E0,-1.585363030E0,-5.551872253E0
3.307500708E0,1.952559471E0,-1.143684745E0,-5.385914326E0
3.317570708E0,2.170755386E0,-4.704424143E-1,-4.535381317E0
3.327639708E0,2.279014587E0,2.834987342E-1,-2.921484947E0
3.337709708E0,2.284383774E0,9.192290902E-1,-7.758505344E-1
3.347779708E0,2.168967247E0,1.219574571E0,1.359653115E0
