"Time (s)","X (rad/s)","Y (rad/s)","Z (rad/s)"
1.176195836E-2,-1.937003881E-1,-3.393156528E-1,2.024225444E-1
2.171195834E-2,-2.035493702E-1,-4.401150644E-1,2.295751572E-1
3.166295832E-2,-2.880573273E-1,-5.910968184E-1,2.118052095E-1
4.161395831E-2,-4.373609424E-1,-6.955180764E-1,2.058574706E-1
5.156495841E-2,-5.744178295E-1,-7.618928552E-1,2.472041249E-1
6.151595840E-2,-6.990201473E-1,-8.279381990E-1,3.060860634E-1
7.146695838E-2,-8.204115629E-1,-8.553935289E-1,3.489392698E-1
8.141795837E-2,-9.079920650E-1,-8.409189582E-1,3.755226433E-1
9.136795835E-2,-9.215056896E-1,-8.587238193E-1,3.829483390E-1
1.013189583E-1,-9.098290801E-1,-8.921787143E-1,3.889468610E-1
1.112699583E-1,-8.666976094E-1,-9.398202896E-1,3.899042606E-1
1.212209584E-1,-8.179554939E-1,-9.811450243E-1,3.587708175E-1
1.311719584E-1,-8.695009947E-1,-9.561566114E-1,2.992334664E-1
1.411229584E-1,-9.366249442E-1,-9.024440050E-1,2.435684502E-1
1.510729584E-1,-9.848986864E-1,-8.149575591E-1,2.406767756E-1
1.610239584E-1,-1.032286048E0,-6.442415714E-1,3.242309988E-1
1.709749583E-1,-9.819357991E-1,-5.431176424E-1,3.753050864E-1
1.809259583E-1,-8.257000446E-1,-5.548558235E-1,3.646435142E-1
1.908769584E-1,-6.442759037E-1,-5.170341730E-1,3.540326655E-1
2.008279584E-1,-4.850836694E-1,-4.836169183E-1,3.218480051E-1
2.107779584E-1,-3.309460282E-1,-3.871151507E-1,2.573592961E-1
2.207289584E-1,-1.910545081E-1,-3.039328158E-1,1.690773815E-1
2.306799584E-1,-8.322230726E-2,-2.572617233E-1,8.608715236E-2
2.406309583E-1,-3.224614635E-2,-2.082883716E-1,2.503747866E-2
2.505819583E-1,-1.732525416E-2,-1.663904488E-1,-2.424831130E-2
2.605329583E-1,-2.255492471E-2,-1.360212862E-1,-2.371192351E-2
2.704839584E-1,-5.250856280E-2,-1.396490484E-1,4.003030434E-2
2.804339584E-1,-6.700161099E-2,-1.543236822E-1,1.065254360E-1
2.903850834E-1,-9.709879011E-2,-1.672980636E-1,1.516297907E-1
3.003360834E-1,-1.553065926E-1,-1.618415266E-1,1.731005013E-1
3.102870834E-1,-2.562526464E-1,-1.358607858E-1,1.761982888E-1
3.202380834E-1,-3.847520351E-1,-9.804700315E-2,1.924850345E-1
3.301890834E-1,-4.896925688E-1,-4.986269772E-2,2.388509363E-1
3.401390833E-1,-5.676831603E-1,-8.738131076E-2,2.942418754E-1
3.500900833E-1,-6.244511008E-1,-1.613210440E-1,3.594376445E-1
3.600410834E-1,-6.592125297E-1,-2.062216699E-1,4.107285142E-1
3.699920834E-1,-6.869561672E-1,-1.935774386E-1,4.337828755E-1
3.799430834E-1,-7.045484781E-1,-1.423635185E-1,4.092375934E-1
3.898940834E-1,-6.994650364E-1,-1.494690925E-1,3.895711899E-1
3.998450834E-1,-6.694596410E-1,-1.874628067E-1,3.916594982E-1
4.097950833E-1,-6.160792112E-1,-2.245318890E-1,4.170660675E-1
4.197460833E-1,-5.675956607E-1,-2.098453492E-1,4.518927336E-1
4.296970834E-1,-5.210880637E-1,-1.343673766E-1,4.720928371E-1
4.396480834E-1,-4.674712420E-1,-7.290524989E-2,4.872705042E-1
4.495990834E-1,-4.110803902E-1,-2.706879005E-2,4.920564592E-1
4.595500834E-1,-3.707562089E-1,-1.312554628E-2,4.468559921E-1
4.695000834E-1,-3.635435700E-1,-6.097057089E-2,3.775421679E-1
4.794510833E-1,-4.008526802E-1,-9.429576248E-2,2.941609621E-1
4.894020833E-1,-4.580097198E-1,-1.483848877E-2,2.147524208E-1
4.993530833E-1,-4.828469157E-1,8.792037517E-2,2.088060379E-1
5.093040834E-1,-5.198438168E-1,9.271113575E-2,2.345534712E-1
5.192550834E-1,-6.039883494E-1,-4.345456604E-3,3.608007729E-1
5.292060834E-1,-5.641234517E-1,8.595913649E-2,5.246828794E-1
5.391560834E-1,-3.513670564E-1,1.740838438E-1,6.525034308E-1
5.491070834E-1,-2.505978048E-1,8.729755878E-2,7.628054619E-1
5.590580833E-1,-3.309390843E-1,1.595150232E-1,7.793931961E-1
5.690090833E-1,-4.629501104E-1,2.898602188E-1,6.811345220E-1
5.789600834E-1,-5.339049697E-1,1.370622665E-1,5.764125586E-1
5.889110834E-1,-5.517553687E-1,-4.760744795E-2,5.166980624E-1
5.988610834E-1,-4.696880281E-1,4.272076115E-2,5.023767352E-1
6.088120834E-1,-3.394208252E-1,1.234172061E-1,4.462519288E-1
6.187630834E-1,-2.609800696E-1,1.178710759E-1,3.397881687E-1
6.287140833E-1,-1.791022569E-1,1.207100078E-1,2.055470049E-1
6.386650833E-1,-7.304999232E-2,1.538439989E-1,7.536700368E-2
6.486160833E-1,4.939017072E-2,1.780326962E-1,-5.091091618E-3
6.585670834E-1,1.654102206E-1,1.887844056E-1,-5.153141916E-2
6.685170834E-1,2.489418536E-1,1.717132777E-1,-9.398060292E-2
6.784680834E-1,2.867806256E-1,1.371005327E-1,-1.230473146E-1
6.884190834E-1,2.612678111E-1,1.130838692E-1,-1.565237790E-1
6.983700834E-1,2.130708098E-1,1.186801493E-1,-1.931616217E-1
7.083210833E-1,1.467397213E-1,1.290824562E-1,-2.278921753E-1
7.182720833E-1,6.535371393E-2,1.399008483E-1,-2.367911041E-1
7.282230834E-1,-7.231274620E-3,1.412926167E-1,-2.118774951E-1
7.381730834E-1,-5.589132383E-2,1.186593026E-1,-1.747493744E-1
7.481240834E-1,-9.292310476E-2,9.894418716E-2,-1.199582890E-1
7.580750834E-1,-9.744346142E-2,8.344528824E-2,-6.650308520E-2
7.680260834E-1,-5.545233563E-2,3.986292332E-2,-2.880284190E-2
7.779770833E-1,2.053803951E-2,-5.843461305E-2,-3.055316396E-3
7.879280833E-1,1.043831408E-1,-1.253119111E-1,1.472234912E-2
7.978780834E-1,1.257258356E-1,-1.072948277E-1,1.124534942E-2
8.078290834E-1,7.779452205E-2,-4.964485392E-2,2.829791047E-4
8.177800834E-1,-2.610733733E-2,4.296950251E-2,-2.465260401E-2
8.277310834E-1,-1.374644935E-1,1.197207421E-1,-4.533178359E-2
8.376820834E-1,-1.870526522E-1,1.318970770E-1,-3.034969792E-2
8.476330834E-1,-1.614527404E-1,9.590551257E-2,9.887738153E-3
8.575840833E-1,-1.204465777E-1,7.916630059E-2,3.679160774E-2
8.675340833E-1,-7.750283927E-2,6.121047214E-2,2.278204821E-2
8.774850834E-1,-5.957873538E-2,8.309046924E-2,-2.008648124E-3
8.874360834E-1,-5.961335450E-2,1.332761496E-1,-1.364772581E-2
8.973870834E-1,-8.290553093E-2,1.976010650E-1,-2.122376487E-2
9.073380834E-1,-1.238649487E-1,2.794410586E-1,-2.938182652E-2
9.172890834E-1,-1.701756269E-1,2.931034565E-1,-5.534902215E-2
9.272400833E-1,-2.134935409E-1,2.836825252E-1,-8.484140038E-2
9.371900833E-1,-2.665604651E-1,2.955552340E-1,-9.944222122E-2
9.471410834E-1,-3.265114129E-1,3.184677362E-1,-7.718751580E-2
9.570920834E-1,-3.546140790E-1,2.992106974E-1,-4.362130910E-2
9.670430834E-1,-3.468411267E-1,2.405220866E-1,-1.619341038E-2
9.769940834E-1,-2.985721231E-1,1.917290688E-1,-1.253798790E-2
9.869450834E-1,-2.336296290E-1,1.424163878E-1,-1.306582615E-2
9.968960834E-1,-1.651333869E-1,1.169785783E-1,-1.214580238E-2
1.006846083E0,-1.107084975E-1,1.126416177E-1,-8.262380958E-3
1.016797083E0,-9.258419275E-2,1.243959218E-1,-1.041124016E-2
1.026748083E0,-1.132410020E-1,1.303121299E-1,-1.610880718E-2
1.036699083E0,-1.527968943E-1,1.432111561E-1,-2.783138119E-2
1.046650083E0,-1.831018031E-1,1.419354975E-1,-4.710440710E-2
1.056601083E0,-1.814697534E-1,1.118534058E-1,-5.055487901E-2
1.066551083E0,-1.384477168E-1,5.710600689E-2,-2.810842544E-2
1.076502083E0,-7.014739513E-2,-7.336454000E-3,2.789360238E-3
1.086453083E0,-6.397445686E-3,-4.531393200E-2,2.584088221E-2
1.096404083E0,1.907658391E-2,-7.071959227E-2,3.415333480E-2
1.106355083E0,1.348634250E-2,-9.386432916E-2,2.676013485E-2
1.116306083E0,-3.842310980E-4,-9.253142029E-2,2.049228363E-2
1.126257083E0,-1.322146691E-2,-7.204904407E-2,2.442497388E-2
1.136207083E0,-3.625714034E-2,-5.759092420E-2,2.459070273E-2
1.146158083E0,-5.989162624E-2,-6.208074465E-2,1.340036653E-2
1.156109083E0,-8.049111068E-2,-5.998172984E-2,1.042311080E-2
1.166060083E0,-9.197466075E-2,-6.707825512E-2,1.662800834E-2
1.176011083E0,-7.130963355E-2,-9.412620962E-2,1.570846140E-2
1.185962083E0,-2.653097361E-2,-1.344677657E-1,2.192374691E-2
1.195913083E0,4.202735424E-2,-1.605761498E-1,3.327872232E-2
1.205863083E0,1.158600301E-1,-1.858815104E-1,4.770480096E-2
1.215814083E0,1.841439754E-1,-2.262693346E-1,4.687729850E-2
1.225765083E0,2.208010554E-1,-2.408253700E-1,2.529637143E-2
1.235716083E0,2.188326269E-1,-2.188774645E-1,-4.778297618E-3
1.245667083E0,1.714331508E-1,-1.422905475E-1,-4.314219952E-2
1.255618083E0,9.686179459E-2,-4.814460129E-2,-6.418583542E-2
1.265569083E0,2.059339359E-2,2.379137464E-2,-5.943609402E-2
1.275519083E0,-5.033037439E-2,7.637344301E-2,-5.731637776E-2
1.285469500E0,-9.256118536E-2,9.282246232E-2,-5.490701646E-2
1.295420500E0,-8.967818320E-2,6.480947137E-2,-3.714054823E-2
1.305371500E0,-2.727499232E-2,-5.947439745E-2,-1.601928473E-2
1.315322500E0,1.157419682E-1,-2.378744036E-1,2.009979077E-2
1.325273500E0,2.871563435E-1,-4.148268104E-1,4.834234715E-2
1.335224500E0,4.217235148E-1,-5.356755853E-1,5.954391882E-2
1.345174500E0,4.806307852E-1,-5.826390982E-1,1.481266785E-2
1.355125500E0,4.598781168E-1,-5.084730983E-1,-2.700086124E-2
1.365076500E0,3.603645861E-1,-3.555403352E-1,-3.227285296E-2
1.375027500E0,2.091881186E-1,-1.844804287E-1,1.591730863E-2
1.384978500E0,6.802459806E-2,-7.439520210E-2,7.599209994E-2
1.394929500E0,-9.641603567E-3,-5.039719120E-2,8.970137686E-2
1.404880500E0,-2.122289129E-2,-7.695876062E-2,7.971478999E-2
1.414830500E0,-2.632277459E-2,-1.193776801E-1,7.128778845E-2
1.424781500E0,-9.805581719E-2,-2.187865674E-1,7.598693669E-2
1.434732500E0,-2.672009468E-1,-2.949805856E-1,9.787768126E-2
1.444683500E0,-5.028563142E-1,-3.332081139E-1,8.861174434E-2
1.454634500E0,-7.915761471E-1,-1.789956391E-1,6.153538078E-2
1.464585500E0,-1.030984998E0,-1.352412999E-2,1.634686440E-2
1.474536500E0,-1.173470736E0,1.304619759E-1,-4.254034720E-4
1.484486500E0,-1.210979581E0,1.963784099E-1,4.950719886E-3
1.494437500E0,-1.159955978E0,2.073559612E-1,3.679785877E-2
1.504388500E0,-1.061109066E0,1.823065430E-1,9.564360231E-2
1.514339500E0,-1.026229739E0,-2.601799369E-2,1.775667369E-1
1.524290500E0,-1.089041114E0,3.289831802E-2,2.272032648E-1
1.534241500E0,-1.190152168E0,1.664810628E-1,2.190324515E-1
1.544192500E0,-1.241154075E0,1.382816434E-1,1.622448117E-1
1.554142500E0,-1.150100946E0,9.108545631E-2,8.480723947E-2
1.564093500E0,-1.013024688E0,1.057477593E-1,3.283618018E-2
1.574044500E0,-8.232621551E-1,1.642856449E-1,2.220231108E-2
1.583995500E0,-6.005744338E-1,2.636937201E-1,2.975982986E-2
1.593946500E0,-3.642673492E-1,3.045665622E-1,3.517857566E-2
1.603897500E0,-1.283330917E-1,2.770396173E-1,3.916133195E-2
1.613848500E0,5.733606592E-2,2.378207445E-1,3.823006898E-2
1.623798500E0,1.821813285E-1,2.158328891E-1,4.541740939E-2
1.633749500E0,2.599947453E-1,2.282562703E-1,4.537371919E-2
1.643700500E0,3.271695375E-1,2.939636409E-1,3.668968379E-2
1.653651500E0,3.889268935E-1,3.892306089E-1,2.840042301E-2
1.663602500E0,4.253813028E-1,4.601415098E-1,3.027368896E-2
1.673553500E0,4.440795481E-1,5.016117096E-1,5.176486820E-2
1.683504500E0,4.574536979E-1,5.443482399E-1,6.515284628E-2
1.693455500E0,4.790007770E-1,6.092692614E-1,5.802071840E-2
1.703405500E0,5.213474631E-1,6.619575620E-1,3.526587039E-2
1.713356500E0,5.824674368E-1,6.783270836E-1,8.095680736E-3
1.723307500E0,6.415568590E-1,6.456935406E-1,-5.461140070E-3
1.733258500E0,6.314636469E-1,5.584924817E-1,-1.009233296E-2
1.743209500E0,5.578852892E-1,4.587872326E-1,-1.129421871E-2
1.753160500E0,4.288273454E-1,3.892334402E-1,-1.496804506E-2
1.763111500E0,2.508461773E-1,3.407729566E-1,-3.063036315E-2
1.773061500E0,7.641658187E-2,3.030383587E-1,-6.198375672E-2
1.783012500E0,-7.323203236E-2,2.828390896E-1,-1.022006869E-1
1.792963500E0,-1.720405668E-1,3.060394824E-1,-1.298629493E-1
1.802914500E0,-2.026783824E-1,3.494133353E-1,-1.478675157E-1
1.812865500E0,-1.890785694E-1,3.724161088E-1,-1.587837934E-1
1.822816500E0,-1.322381943E-1,3.212320209E-1,-1.571717858E-1
1.832767500E0,-5.457787588E-2,2.011473477E-1,-1.259138286E-1
1.842718500E0,4.895490780E-2,5.652889982E-2,-6.495060772E-2
1.852668500E0,1.446610093E-1,-6.906364113E-2,7.894574665E-3
1.862619500E0,2.136739045E-1,-1.308593750E-1,4.154121876E-2
1.872570500E0,2.543579340E-1,-1.570402831E-1,4.372855648E-2
1.882521500E0,2.675355375E-1,-2.001062483E-1,3.069877252E-2
1.892472500E0,2.523814440E-1,-2.449475080E-1,3.047986887E-2
1.902423500E0,2.151110172E-1,-2.440231144E-1,3.264049068E-2
1.912374500E0,1.627388746E-1,-1.898173094E-1,4.068518430E-2
1.922324500E0,1.002062559E-1,-1.202337071E-1,5.105207115E-2
1.932275500E0,5.006963387E-2,-6.016593426E-2,5.597816780E-2
1.942226500E0,2.543033101E-2,-4.462185875E-2,5.735528842E-2
1.952177500E0,4.986406863E-2,-5.552643910E-2,5.090977252E-2
1.962128500E0,9.216385335E-2,-5.675335974E-2,4.899309576E-2
1.972079500E0,1.479646564E-1,-6.307845563E-2,5.100981891E-2
1.982030500E0,2.078762054E-1,-1.107671484E-1,5.853005499E-2
1.991980500E0,2.323424518E-1,-1.703457981E-1,6.374878436E-2
2.001931500E0,2.278590202E-1,-2.325407267E-1,6.006855518E-2
2.011882500E0,1.584626734E-1,-2.178648412E-1,3.333241865E-2
2.021833500E0,6.000347808E-2,-1.436382830E-1,1.918490604E-2
2.031784500E0,-3.850669041E-2,-6.236064062E-2,2.453994751E-2
2.041735500E0,-8.624065667E-2,-1.081516221E-2,3.033658117E-2
2.051686500E0,-4.684763029E-2,-2.429191023E-2,3.838430345E-2
2.061637500E0,5.062726140E-2,-6.305928528E-2,4.379824549E-2
2.071587500E0,1.472657621E-1,-8.336437494E-2,6.164413691E-2
2.081538500E0,1.938652247E-1,-1.076148525E-1,7.676582783E-2
2.091489500E0,1.435829848E-1,-9.858655930E-2,5.095011368E-2
2.101440500E0,8.392666467E-3,-3.309916332E-2,-1.657060534E-2
2.111391500E0,-1.473066658E-1,4.797828943E-2,-5.722810328E-2
2.121342500E0,-2.517462671E-1,1.151626483E-1,-5.636630207E-2
2.131293500E0,-2.621845007E-1,1.303696632E-1,-3.069614246E-2
2.141243500E0,-1.854681820E-1,7.782335579E-2,1.142014936E-2
2.151194500E0,-3.080928698E-2,-2.170367166E-2,5.651740730E-2
2.161145500E0,1.426668912E-1,-1.803990453E-1,8.827880025E-2
2.171096500E0,2.645045519E-1,-3.215914965E-1,9.389443696E-2
2.181047500E0,3.171986639E-1,-4.264859557E-1,9.070370346E-2
2.190998500E0,2.908458114E-1,-4.595000148E-1,7.728824764E-2
2.200949500E0,1.933293790E-1,-4.049520791E-1,2.455579303E-2
2.210900500E0,4.836189747E-2,-2.801651359E-1,-3.354386240E-2
2.220850500E0,-1.056820005E-1,-1.137612537E-1,-5.143178254E-2
2.230801500E0,-2.304644287E-1,-4.283051006E-3,-1.733461767E-2
2.240752500E0,-3.048241436E-1,-1.144988369E-2,4.287678748E-2
2.250703500E0,-3.106616735E-1,-4.175647721E-2,8.441229165E-2
2.260654500E0,-2.544333041E-1,-1.301214844E-1,1.106723920E-1
2.270605500E0,-1.703911573E-1,-1.935414970E-1,1.158585474E-1
2.280556500E0,-8.394948393E-2,-1.982994974E-1,9.675835818E-2
2.290506833E0,-1.115290262E-2,-1.492746770E-1,4.715387523E-2
2.300457833E0,3.393068537E-2,-7.991132140E-2,-4.547400866E-3
2.310408833E0,4.699760675E-2,-4.987900611E-3,-2.651977167E-2
2.320359833E0,3.609835356E-2,5.881318077E-2,-1.565727219E-2
2.330310833E0,2.849225421E-3,8.384281397E-2,4.224333912E-3
2.340261833E0,-4.741527885E-2,1.157232523E-1,2.384890057E-2
2.350212833E0,-9.534677863E-2,1.181288809E-1,3.365613520E-2
2.360163833E0,-1.131606624E-1,6.668619812E-2,-7.426321507E-3
2.370113833E0,-5.125705898E-2,3.325589001E-2,-8.377560973E-2
2.380064833E0,3.165566921E-2,5.664829910E-2,-1.344454437E-1
2.390015833E0,1.131832823E-1,9.074688703E-2,-1.579174697E-1
2.399966833E0,1.780746728E-1,1.244438589E-1,-1.449004710E-1
2.409917833E0,2.205532789E-1,1.519954056E-1,-1.165228114E-1
2.419868833E0,2.294777930E-1,1.858132929E-1,-1.028677151E-1
2.429819833E0,2.100260109E-1,2.241012156E-1,-1.047364026E-1
2.439769833E0,1.571412235E-1,2.663802207E-1,-1.258715093E-1
2.449720833E0,6.631317735E-2,3.360526860E-1,-1.516101360E-1
2.459671833E0,-4.473877698E-2,4.395990670E-1,-1.519920230E-1
2.469622833E0,-1.490602791E-1,5.371230245E-1,-1.351634264E-1
2.479573833E0,-1.982967854E-1,5.706277490E-1,-1.045884639E-1
2.489524833E0,-1.373654455E-1,5.283767581E-1,-8.518006653E-2
2.499475833E0,1.940977573E-2,3.106242120E-1,-2.120800689E-2
2.509426833E0,2.214021683E-1,5.339364707E-2,6.141887233E-2
2.519376833E0,4.010454118E-1,-1.917391419E-1,1.270191818E-1
2.529327833E0,4.939276874E-1,-3.235572577E-1,1.497749090E-1
2.539278833E0,4.682165086E-1,-3.361606598E-1,1.145029515E-1
2.549229833E0,3.230624199E-1,-2.566322982E-1,3.699113429E-2
2.559180833E0,1.247344092E-1,-1.298719645E-1,-3.593873233E-2
2.569131833E0,-1.039707810E-1,1.690374315E-1,-5.088901520E-2
2.579082833E0,-2.848287225E-1,3.722677529E-1,-7.718506455E-2
2.589033833E0,-3.508176804E-1,3.979958594E-1,-6.412880868E-2
2.598983833E0,-2.733375430E-1,3.210797608E-1,-2.315874211E-2
2.608934833E0,-1.019494608E-1,1.706245691E-1,9.014599957E-3
2.618885833E0,8.036681265E-2,1.923345029E-2,2.626362815E-2
2.628836833E0,1.995895803E-1,-8.383700997E-2,3.466508910E-2
2.638787833E0,2.377422899E-1,-1.274769008E-1,3.582303226E-2
2.648738833E0,2.443028688E-1,-1.649829149E-1,-2.544379979E-2
2.658689833E0,1.834123582E-1,-4.627064243E-2,-9.464257956E-2
2.668640833E0,8.589377254E-2,1.133176163E-1,-1.524779201E-1
2.678590833E0,-7.887040824E-2,1.432526112E-1,-1.810709536E-1
2.688541833E0,-1.813474447E-1,1.557900757E-1,-1.461962312E-1
2.698492833E0,-1.803604662E-1,1.161547676E-1,-1.093980148E-1
2.708443833E0,-1.014416292E-1,-1.203232352E-2,-6.669828296E-2
2.718394833E0,2.099933103E-2,-2.480264902E-1,-2.526083030E-2
2.728345833E0,1.340726167E-1,-4.498964846E-1,7.734404411E-3
2.738296833E0,2.182348967E-1,-5.007665753E-1,8.140536025E-3
2.748247833E0,2.670848668E-1,-3.432911932E-1,-1.881174371E-2
2.758197833E0,2.874623239E-1,-6.458473951E-2,-5.909338221E-2
2.768148833E0,2.763940990E-1,2.222617567E-1,-1.226769239E-1
2.778099833E0,2.712755203E-1,4.118649662E-1,-1.700252742E-1
2.788050833E0,2.610004842E-1,3.870266378E-1,-1.757203639E-1
2.798001833E0,2.374136597E-1,2.409610450E-1,-1.278204918E-1
2.807952833E0,2.455531955E-1,8.089540154E-2,-4.228093103E-2
2.817903833E0,2.361381203E-1,-1.551687866E-1,3.340557218E-2
2.827853833E0,2.449940741E-1,-3.174730837E-1,8.598107100E-2
2.837804833E0,2.760153711E-1,-4.573542774E-1,1.161323190E-1
2.847755833E0,2.975633144E-1,-5.440158248E-1,1.197305843E-1
2.857706833E0,3.069277704E-1,-5.438168645E-1,1.111837029E-1
2.867657833E0,3.001337349E-1,-4.506989121E-1,1.012078896E-1
2.877608833E0,2.445274591E-1,-2.594040334E-1,8.755040169E-2
2.887559833E0,1.423067451E-1,-3.717824444E-2,6.464659423E-2
2.897510833E0,2.273732331E-3,1.441731602E-1,2.084930986E-2
2.907460833E0,-1.503618807E-1,2.313544005E-1,-3.758297302E-3
2.917411833E0,-2.283639163E-1,2.310026884E-1,5.280175246E-4
2.927362833E0,-2.279430777E-1,4.262062907E-2,-3.301394172E-3
2.937313833E0,-1.905696094E-1,-6.468398869E-2,8.284954354E-3
2.947264833E0,-1.823870093E-1,-1.218082607E-1,5.560161173E-2
2.957215833E0,-8.974095434E-2,1.473173592E-2,9.383422136E-2
2.967166833E0,-1.818759181E-2,4.963850603E-2,1.223383248E-1
2.977117833E0,4.916508496E-2,-1.666515134E-2,1.253865808E-1
2.987067833E0,7.325638831E-2,-1.197795570E-1,9.841809422E-2
2.997018833E0,3.208338842E-2,-1.430614442E-1,6.314878911E-2
3.006969833E0,-6.315684319E-2,-1.046837941E-1,5.727713555E-2
3.016920833E0,-2.067936361E-1,-1.482304782E-1,2.161820978E-2
3.026871833E0,-2.889873683E-1,-2.395361364E-1,-1.357842609E-2
3.036822833E0,-3.652046621E-1,-2.494231164E-1,-2.329017408E-2
3.046773833E0,-4.434957206E-1,-1.800371259E-1,-7.125319913E-3
3.056724833E0,-4.761362374E-1,-1.831652820E-1,8.542856202E-3
3.066674833E0,-4.341320097E-1,-2.431353182E-1,4.593278468E-2
3.076625833E0,-3.539090753E-1,-3.092631996E-1,5.096296221E-2
3.086576833E0,-2.993566394E-1,-3.074251711E-1,3.147201613E-2
3.096527833E0,-2.729609907E-1,-2.668055892E-1,-2.309668995E-2
3.106478833E0,-2.626549304E-1,-1.893724650E-1,-3.929531574E-2
3.116429833E0,-2.486568093E-1,-9.002432227E-2,3.203676082E-3
3.126380833E0,-2.031244934E-1,4.377180710E-2,4.341161624E-2
3.136331833E0,-1.147280633E-1,1.389270872E-1,5.768296495E-2
3.146281833E0,-4.552920349E-3,1.697063148E-1,7.515697926E-2
3.156232833E0,7.730093598E-2,1.313434690E-1,1.113695800E-1
3.166183833E0,1.111140847E-1,1.061420739E-1,1.285407990E-1
3.176134833E0,8.509712666E-2,1.158594191E-1,1.231918335E-1
3.186085833E0,-1.006437279E-2,1.949031949E-1,1.065057740E-1
3.196036833E0,-9.713349491E-2,3.613688648E-1,4.598251358E-2
3.205987833E0,-1.982899457E-1,4.890479147E-1,1.637642644E-2
3.215938833E0,-2.771983147E-1,5.891124606E-1,2.563090995E-2
3.225889833E0,-3.255683184E-1,6.230522990E-1,2.256566100E-2
3.235839833E0,-3.463518918E-1,5.262099504E-1,-3.058171272E-2
3.245790833E0,-2.995933294E-1,4.004250169E-1,-6.428785622E-2
3.255741833E0,-2.131002545E-1,2.690523267E-1,-5.561660230E-2
3.265692833E0,-1.064250916E-1,1.588170081E-1,-5.116077513E-2
