"Time (s)","X (m/s^2)","Y (m/s^2)","Z (m/s^2)"
-2.109458321E-3,-4.460723877E0,7.116052094E0,6.059998169E0
7.921541692E-3,-4.473447418E0,7.047195282E0,6.179599457E0
1.795154170E-2,-4.675227814E0,7.020850067E0,6.419849854E0
2.798154170E-2,-5.033432922E0,7.202572174E0,6.647975464E0
3.801254171E-2,-5.399571533E0,7.593110046E0,7.043752441E0
4.804254172E-2,-5.783523102E0,8.072113953E0,7.759264526E0
5.807254172E-2,-5.953569489E0,8.461454315E0,8.744515686E0
6.810254173E-2,-5.810167694E0,8.685388641E0,9.716594238E0
7.813354174E-2,-5.364843750E0,8.597521362E0,1.053718781E1
8.816354175E-2,-4.793781281E0,8.329428864E0,1.119821320E1
9.819354175E-2,-4.203408966E0,7.960296478E0,1.173050629E1
1.082245418E-1,-3.616329803E0,7.539222107E0,1.222373062E1
1.182545418E-1,-3.152145081E0,7.076983337E0,1.258762390E1
1.282845418E-1,-2.893632660E0,6.572232971E0,1.280557068E1
1.383155417E-1,-2.628084869E0,6.044430542E0,1.276335846E1
1.483455417E-1,-2.292183380E0,5.506598969E0,1.235560638E1
1.583755417E-1,-2.024390259E0,5.103337555E0,1.166419418E1
1.684065417E-1,-1.932780762E0,4.897365875E0,1.100780914E1
1.784365417E-1,-1.959425354E0,4.817432098E0,1.046758255E1
1.884665417E-1,-1.972148895E0,4.812791748E0,9.958341522E0
1.984965417E-1,-1.727108459E0,4.825515289E0,9.368268585E0
2.085275417E-1,-1.352587280E0,4.716242523E0,8.648864594E0
2.185575417E-1,-9.883946228E-1,4.509372711E0,7.845934296E0
2.285875417E-1,-7.008425903E-1,4.403692474E0,7.094347229E0
2.386185417E-1,-4.174818420E-1,4.447102203E0,6.612050171E0
2.486485417E-1,4.760101318E-2,4.349355469E0,6.551725616E0
2.586785418E-1,5.264552307E-1,4.121379547E0,6.571185150E0
2.687095418E-1,8.327183533E-1,3.862567749E0,6.495292969E0
2.787395418E-1,1.121767273E0,3.585194550E0,6.374643860E0
2.887695418E-1,9.653425598E-1,3.501069489E0,6.269412689E0
2.987995418E-1,2.508782959E-1,3.888164520E0,6.452182617E0
3.088305417E-1,-2.436932373E-1,4.155209198E0,6.537804565E0
3.188605417E-1,-4.769082642E-1,4.358785858E0,6.242618408E0
3.288905417E-1,-5.947132874E-1,4.396357727E0,5.766308899E0
3.389215417E-1,-6.709048462E-1,4.277355194E0,5.273533630E0
3.489515417E-1,-9.280700684E-1,4.110302582E0,4.806055756E0
3.589815417E-1,-1.203647003E0,3.936963043E0,4.448599091E0
3.690125417E-1,-1.358874207E0,3.810027008E0,4.382436676E0
3.790425417E-1,-1.411864014E0,3.736380157E0,4.574337616E0
3.890725417E-1,-1.377734985E0,3.702251129E0,4.945415955E0
3.991025417E-1,-1.352886658E0,3.741619263E0,5.678142242E0
4.091335417E-1,-1.409768372E0,3.782334595E0,6.637796631E0
4.191635418E-1,-1.443298645E0,3.658691711E0,7.860603790E0
4.291935418E-1,-1.338666229E0,3.666026459E0,8.196654968E0
4.392245418E-1,-1.130598907E0,3.443589020E0,8.566236420E0
4.492545418E-1,-9.178912354E-1,3.200494537E0,8.683143311E0
4.592845418E-1,-8.434959412E-1,3.027753754E0,8.800948334E0
4.693155417E-1,-9.352551270E-1,3.011587372E0,9.108408966E0
4.793455417E-1,-1.107995911E0,3.086282043E0,9.437724152E0
4.893755417E-1,-1.301992493E0,3.242257690E0,9.467063141E0
4.994055417E-1,-1.559906158E0,3.443289642E0,9.530082092E0
5.094365417E-1,-1.872156830E0,3.695215759E0,9.988878021E0
5.194665417E-1,-2.108964386E0,4.013603668E0,1.037537430E1
5.294965417E-1,-2.086361389E0,4.179159393E0,1.079240707E1
5.395275417E-1,-1.728156281E0,4.160298615E0,1.083761307E1
5.495575417E-1,-9.924362183E-1,4.064048767E0,1.075827805E1
5.595875417E-1,-2.185455322E-2,3.870650940E0,1.050754944E1
5.696185417E-1,1.031954041E0,3.579506378E0,1.052506302E1
5.796485418E-1,2.063758392E0,3.297343140E0,1.074869797E1
5.896785418E-1,3.046464844E0,2.984044647E0,1.101095261E1
5.997085418E-1,3.779939575E0,2.709665222E0,1.134401001E1
6.097395418E-1,4.225562897E0,2.525099030E0,1.167332520E1
6.197695418E-1,4.402794342E0,2.422262878E0,1.198752182E1
6.297995417E-1,4.253404999E0,2.578687592E0,1.268013153E1
6.398305417E-1,3.595972137E0,3.151995392E0,1.344294525E1
6.498605417E-1,2.243684235E0,3.812571716E0,1.360520782E1
6.598905417E-1,9.449848938E-1,4.139641571E0,1.295615753E1
6.699205417E-1,3.113525391E-1,3.942800903E0,1.202509369E1
6.799515417E-1,2.779719543E-1,3.347488861E0,1.135718262E1
6.899815417E-1,-5.366340637E-1,3.216660919E0,1.140208923E1
7.000115417E-1,-1.503323822E0,3.022215271E0,1.116378479E1
7.100425417E-1,-1.735640717E0,2.540067902E0,1.064152084E1
7.200725417E-1,-2.023791504E0,2.310445404E0,1.042252625E1
7.301025417E-1,-2.110760651E0,2.115101624E0,1.037746994E1
7.401335418E-1,-1.921853485E0,1.878743134E0,1.038450531E1
7.501635418E-1,-1.690584412E0,1.711091766E0,1.032088760E1
7.601935418E-1,-1.304387512E0,1.605261841E0,1.047656387E1
7.702235418E-1,-8.898994446E-1,1.389111328E0,1.052281769E1
7.802545417E-1,-7.303312683E-1,1.327589264E0,1.042581940E1
7.902845417E-1,-6.605763245E-1,1.434317322E0,1.036609360E1
8.003145417E-1,-6.047424316E-1,1.621577911E0,1.014530273E1
8.103455417E-1,-6.661148071E-1,2.123484192E0,9.668843536E0
8.203755417E-1,-1.030756531E0,2.878514099E0,8.727451172E0
8.304055417E-1,-1.296304321E0,3.493884430E0,7.620203705E0
8.404355417E-1,-1.533710632E0,3.669319611E0,7.972421265E0
8.504665417E-1,-1.529070282E0,3.828887787E0,7.015311584E0
8.604965417E-1,-1.322649536E0,4.215683441E0,5.771098938E0
8.705265417E-1,-1.581461334E0,4.313280487E0,6.111491089E0
8.805575417E-1,-1.675914917E0,3.966002655E0,5.667813721E0
8.905875417E-1,-1.618733826E0,3.406765594E0,5.559139709E0
9.006175417E-1,-1.655557251E0,3.109483795E0,5.484594727E0
9.106476667E-1,-1.718725891E0,3.007845154E0,5.345683594E0
9.206786667E-1,-1.664538574E0,2.931653595E0,5.317542114E0
9.307086667E-1,-1.407223663E0,2.901715851E0,5.507197723E0
9.407386667E-1,-9.452842712E-1,2.812201996E0,5.872138824E0
9.507696667E-1,-4.225712585E-1,2.603386230E0,6.251300354E0
9.607996667E-1,-7.768844604E-2,2.174528046E0,6.160738678E0
9.708296667E-1,-1.511856079E-2,2.690205688E0,5.931565247E0
9.808606667E-1,-2.305206299E-2,3.214864655E0,5.697302399E0
9.908906667E-1,-1.766326904E-2,3.665727081E0,5.291795654E0
1.000920667E0,-5.209167480E-2,4.164489899E0,5.087919617E0
1.010950667E0,-1.811233521E-2,4.382436676E0,5.035229187E0
1.020981667E0,-1.169068909E-1,4.327201538E0,5.100343781E0
1.031011667E0,9.984237671E-2,3.828738098E0,4.347559204E0
1.041041667E0,-1.350192261E-1,3.750450897E0,5.322631531E0
1.051071667E0,-4.552033997E-1,3.736230469E0,7.112309875E0
1.061102667E0,-6.423143005E-1,3.503464508E0,8.790619812E0
1.071132667E0,-1.242566071E0,3.525319061E0,9.570198669E0
1.081162667E0,-1.670226746E0,3.608396301E0,9.813592529E0
1.091193667E0,-1.802551575E0,3.808979187E0,9.959988098E0
1.101223667E0,-2.037263489E0,3.923640747E0,9.907447357E0
1.111253667E0,-1.850451965E0,4.220772858E0,9.929601288E0
1.121284667E0,-1.105750580E0,4.690645752E0,9.852212219E0
1.131314667E0,5.572911072E-1,4.897216187E0,9.849218445E0
1.141344667E0,1.856140137E0,4.996160431E0,1.002165985E1
1.151374667E0,2.362537079E0,5.204676819E0,1.041324554E1
1.161405667E0,2.582130432E0,5.464087372E0,1.066891388E1
1.171435667E0,2.588716736E0,5.606591034E0,1.074315948E1
1.181465667E0,2.408790894E0,5.508694611E0,1.082129700E1
1.191496667E0,2.237397308E0,5.397775269E0,1.085946762E1
1.201526667E0,2.262095947E0,5.460943909E0,1.075618240E1
1.211556667E0,2.748284912E0,5.570216675E0,1.062340851E1
1.221586667E0,3.413501587E0,5.509742432E0,1.060948746E1
1.231617667E0,3.932771759E0,5.428162079E0,1.080004120E1
1.241647667E0,4.270020447E0,5.458399200E0,1.107472000E1
1.251677667E0,4.550836487E0,5.281018066E0,1.127081223E1
1.261707667E0,4.716392212E0,4.956043854E0,1.123743164E1
1.271738667E0,4.732259216E0,4.588108978E0,1.114896561E1
1.281768667E0,4.607568512E0,4.204007721E0,1.120360199E1
1.291798667E0,4.453239441E0,3.791016541E0,1.135373978E1
1.301829667E0,4.320315857E0,3.479364624E0,1.143606857E1
1.311859667E0,4.234693909E0,3.230881348E0,1.119626724E1
1.321889667E0,4.146826630E0,3.124452667E0,1.063149170E1
1.331919667E0,4.076023865E0,3.215014343E0,9.979597321E0
1.341950667E0,4.283193054E0,3.241509247E0,9.116043091E0
1.351980667E0,4.393813019E0,3.194656677E0,8.084538116E0
1.362010667E0,3.988605652E0,3.356021118E0,7.496560822E0
1.372041667E0,4.168980560E0,3.302133179E0,6.682703247E0
1.382071667E0,3.893104248E0,3.255280609E0,6.298152924E0
1.392101667E0,3.892804871E0,3.317251740E0,6.145919495E0
1.402131667E0,4.231999512E0,3.255280609E0,6.042035522E0
1.412162667E0,4.158352661E0,3.181035004E0,6.130501556E0
1.422192667E0,3.913761292E0,3.187621307E0,6.320606232E0
1.432222667E0,3.689677277E0,3.188968506E0,6.339766388E0
1.442253667E0,3.446582794E0,3.049608307E0,6.289770355E0
1.452283667E0,3.253783722E0,3.008443909E0,6.340215454E0
1.462313667E0,3.100203094E0,3.047961731E0,6.406677246E0
1.472343667E0,2.841990051E0,3.228636017E0,6.686295776E0
1.482374667E0,2.659669189E0,3.438798981E0,6.915169830E0
1.492404667E0,2.608176270E0,3.643124084E0,7.029082947E0
1.502434667E0,2.596799927E0,3.760030975E0,6.970854034E0
1.512464667E0,2.463726654E0,3.892655182E0,6.744225311E0
1.522495667E0,2.282902679E0,4.076173553E0,6.459816742E0
1.532525667E0,2.127076721E0,4.190086670E0,6.165828094E0
1.542555667E0,2.075883179E0,4.353846130E0,5.955365753E0
1.552586667E0,2.200274506E0,4.571044464E0,5.832171936E0
1.562616667E0,2.380499725E0,4.786745911E0,5.775439911E0
1.572646667E0,2.549198914E0,4.954846344E0,5.815556488E0
1.582676667E0,2.661615143E0,4.983287201E0,5.949228516E0
1.592707667E0,2.638563080E0,4.963228912E0,6.148314514E0
1.602737667E0,2.567011871E0,4.928800507E0,6.327791290E0
1.612767667E0,2.533032532E0,4.789290619E0,6.535110168E0
1.622797667E0,2.544708252E0,4.520150299E0,6.798412628E0
1.632828667E0,2.445913696E0,4.198169861E0,7.110363922E0
1.642858667E0,2.413580933E0,3.958069153E0,7.511080627E0
1.652888667E0,2.655328217E0,3.884571991E0,8.120463409E0
1.662919667E0,2.652484131E0,3.854933624E0,8.725355530E0
1.672949667E0,2.536026306E0,3.746708679E0,9.300758972E0
1.682979667E0,2.509381714E0,3.589834900E0,9.718689880E0
1.693009667E0,2.565664673E0,3.540138245E0,1.002495300E1
1.703040667E0,2.559527435E0,3.598816223E0,1.025771896E1
1.713070667E0,2.592908020E0,3.592379608E0,1.027777725E1
1.723100667E0,2.660866699E0,3.510350189E0,1.003228775E1
1.733130667E0,2.881657562E0,3.494333496E0,9.813293152E0
1.743161667E0,3.047662354E0,3.662733307E0,9.757309570E0
1.753191667E0,3.265160065E0,3.847898254E0,9.787397003E0
1.763221667E0,3.500919800E0,3.947291565E0,9.901010742E0
1.773252667E0,3.617227936E0,4.126618652E0,1.011805939E1
1.783282667E0,3.687581635E0,4.439168701E0,1.050934570E1
1.793312667E0,3.794609070E0,4.769382019E0,1.077145065E1
1.803342667E0,3.749103699E0,4.998705139E0,1.053943314E1
1.813373667E0,3.572021942E0,4.994813232E0,1.023406815E1
1.823403667E0,3.662433929E0,4.836442566E0,1.001387604E1
1.833433667E0,4.003125458E0,4.389771423E0,9.668693848E0
1.843463667E0,4.014052734E0,3.839365997E0,9.507179718E0
1.853494667E0,3.487597504E0,3.310066681E0,9.604327698E0
1.863524667E0,2.771486664E0,2.889141998E0,1.009440857E1
1.873554667E0,2.333946533E0,2.482288055E0,1.090093140E1
1.883584667E0,2.280208282E0,2.124232635E0,1.166524200E1
1.893615667E0,2.569107513E0,1.785786438E0,1.197045731E1
1.903645458E0,2.748135223E0,1.360969849E0,1.188303909E1
1.913675458E0,2.736459503E0,1.108444977E0,1.145867157E1
1.923706458E0,2.471510468E0,1.223705292E0,1.113639175E1
1.933736458E0,2.230212250E0,1.570384369E0,1.110495712E1
1.943766458E0,2.032024384E0,1.920356598E0,1.122425903E1
1.953796458E0,1.861678619E0,2.045346680E0,1.089359665E1
1.963827458E0,1.659898224E0,2.039209442E0,1.010009674E1
1.973857458E0,9.915380859E-1,2.105820923E0,9.388177185E0
1.983887458E0,5.201683044E-1,2.449506226E0,8.749006348E0
1.993917458E0,6.719526672E-1,2.610720978E0,8.334069214E0
2.003948458E0,7.699987793E-1,2.696642303E0,8.101003876E0
2.013978458E0,8.981323242E-1,2.846929779E0,7.854466553E0
2.024008458E0,8.228388977E-1,2.939736786E0,7.864645386E0
2.034038458E0,1.495390320E-1,3.025957489E0,7.730374603E0
2.044069458E0,-4.968168640E-1,2.829715576E0,7.531887360E0
2.054099458E0,-6.716532898E-1,2.352358246E0,7.203021240E0
2.064129458E0,-2.812651062E-1,1.909429321E0,7.257358246E0
2.074159458E0,-2.778222656E-1,1.902393951E0,7.203470306E0
2.084190458E0,-9.514215088E-1,2.057920532E0,6.935228119E0
2.094220458E0,-1.212778015E0,2.101330261E0,6.935377808E0
2.104250458E0,-1.476828918E0,2.101030884E0,6.962172089E0
2.114281458E0,-2.075883179E0,1.937271423E0,6.743327179E0
2.124311458E0,-2.101629639E0,1.639989624E0,6.382277985E0
2.134341458E0,-1.465003510E0,1.339564362E0,6.293512573E0
2.144371458E0,-1.119971008E0,1.483115845E0,6.156547394E0
2.154402458E0,-1.099164276E0,1.898502045E0,6.239474945E0
2.164432458E0,-7.795788574E-1,2.359094238E0,6.581363983E0
2.174462458E0,-4.486170959E-1,3.110980682E0,7.055727539E0
2.184492458E0,-3.134481812E-1,3.727847900E0,7.251819763E0
2.194523458E0,6.601272583E-2,4.020040283E0,7.240892487E0
2.204553458E0,4.908293152E-1,4.124223633E0,7.183711395E0
2.214583458E0,6.812333679E-1,4.170178070E0,7.142397308E0
2.224613458E0,4.312532043E-1,4.224365387E0,7.152576141E0
2.234644458E0,-4.191284180E-2,4.476441193E0,7.470814362E0
2.244674458E0,-6.312373352E-1,4.888833618E0,8.009244690E0
2.254704458E0,-1.120569763E0,4.908592529E0,8.452772369E0
2.264734458E0,-1.246457977E0,4.609215088E0,8.866811371E0
2.274765458E0,-1.033301239E0,4.424948273E0,9.421408081E0
2.284795458E0,-1.481618958E0,4.275409241E0,1.001522324E1
2.294825458E0,-1.936972046E0,4.324806519E0,1.045815216E1
2.304855458E0,-1.772164764E0,4.590354309E0,9.830207977E0
2.314886458E0,-2.392175446E0,4.714446259E0,9.434131622E0
2.324916458E0,-2.882106628E0,4.698728943E0,1.023331970E1
2.334946458E0,-2.659968567E0,4.490811310E0,1.110121490E1
2.344977458E0,-2.315684509E0,4.427043915E0,1.162108383E1
2.355007458E0,-1.834435272E0,4.156706085E0,1.256831406E1
2.365037458E0,-1.344055023E0,3.993545380E0,1.363813934E1
2.375067458E0,-1.049916687E0,4.383634186E0,1.415800827E1
2.385098458E0,-7.373666382E-1,4.867278442E0,1.390099274E1
2.395128458E0,-2.694396973E-1,4.715045013E0,1.363843872E1
2.405158458E0,5.837860107E-2,4.334536285E0,1.298310150E1
2.415188458E0,2.369572449E-1,3.943549347E0,1.223780136E1
2.425219458E0,-5.093907166E-1,3.763174438E0,1.173978699E1
2.435249458E0,-1.801054688E0,3.094664612E0,1.187390808E1
2.445279458E0,-3.171903992E0,1.956880646E0,1.206371338E1
2.455309458E0,-3.983366547E0,1.152004395E0,1.184816162E1
2.465340458E0,-4.588108978E0,7.086264038E-1,1.106963058E1
2.475370458E0,-4.699327698E0,2.812651062E-1,1.055814423E1
2.485400458E0,-4.449197845E0,-2.836601257E-1,1.064047302E1
2.495430458E0,-4.359534302E0,-5.346881104E-1,1.091979218E1
2.505461458E0,-4.148772583E0,-2.269281006E-1,1.092503128E1
2.515491458E0,-3.367098083E0,-3.622467041E-2,1.045560745E1
2.525521458E0,-2.585124207E0,1.748364258E-1,9.892777863E0
2.535551458E0,-2.236349487E0,2.971321106E-1,9.240434418E0
2.545582458E0,-2.232756958E0,2.519261169E-1,8.815318451E0
2.555612458E0,-2.061662750E0,3.463796997E-1,8.432115326E0
2.565642458E0,-1.603764954E0,6.825805664E-1,8.264613647E0
2.575672458E0,-1.404828644E0,1.106499023E0,7.991132355E0
2.585703458E0,-1.372495880E0,1.356479187E0,7.448660431E0
2.595733458E0,-1.545086975E0,1.172212372E0,6.794071655E0
2.605763458E0,-2.036664734E0,1.003513184E0,6.429429932E0
2.615793458E0,-2.779869232E0,1.049018555E0,6.144123230E0
2.625824458E0,-3.547772369E0,1.211580505E0,5.661826172E0
2.635854458E0,-3.996239777E0,1.340761871E0,5.358706512E0
2.645884458E0,-4.135599976E0,1.295705566E0,4.905598755E0
2.655914458E0,-4.173471222E0,1.090632019E0,4.168232117E0
2.665945458E0,-4.095333710E0,4.990621948E-1,2.543959808E0
2.675975458E0,-4.173770599E0,-1.245410156E-1,-2.701881409E-1
2.686005458E0,-4.333338776E0,-4.343966675E-1,-2.104623413E0
2.696035458E0,-3.841162262E0,-4.547543335E-1,-1.735041962E0
2.706066458E0,-2.550995178E0,-4.836442566E-1,-6.366261292E-1
2.716096458E0,-2.155517578E-2,-6.240522766E-1,1.162332916E0
2.726126458E0,2.291734314E0,-3.978726196E-1,3.602558441E0
2.736156458E0,3.563789062E0,1.826202393E-2,5.281167755E0
2.746187458E0,3.989204407E0,1.112187195E-1,5.467230835E0
2.756217458E0,4.972808990E0,-2.311193848E-1,5.542224884E0
2.766247458E0,5.985453186E0,-5.246589661E-1,4.985083466E0
2.776277458E0,6.359525299E0,-8.831634521E-1,3.567830658E0
2.786308458E0,6.084247742E0,-1.151106262E-1,2.893482971E0
2.796338458E0,5.017416229E0,4.790039062E-1,3.832180939E0
2.806368458E0,3.892804871E0,-9.467811584E-1,5.497767334E0
2.816398458E0,2.221380615E0,-2.319576416E0,6.526727600E0
2.826428458E0,2.821632385E-1,-2.894231415E0,7.345524902E0
2.836459458E0,-1.258283386E0,-3.860921173E0,8.323890381E0
2.846489458E0,-2.747386780E0,-5.190905457E0,8.853040009E0
2.856519458E0,-4.347559204E0,-5.760920105E0,9.658365326E0
2.866549458E0,-5.959706726E0,-5.791755981E0,1.103924377E1
2.876580458E0,-7.648943939E0,-6.558760986E0,1.330283661E1
2.886610458E0,-9.681118011E0,-6.381379852E0,1.506991196E1
2.896640458E0,-1.163425644E1,-7.072492676E0,1.862142654E1
2.906671042E0,-1.409947998E1,-8.131839752E0,2.127914978E1
2.916702042E0,-1.655422531E1,-8.467591553E0,2.288486069E1
2.926732042E0,-1.785112839E1,-7.855065308E0,2.251288422E1
2.936762042E0,-1.751792130E1,-8.230933685E0,2.275373337E1
2.946792042E0,-1.673654617E1,-8.682245178E0,2.254940826E1
2.956823042E0,-1.663520691E1,-8.232280884E0,2.153287216E1
2.966853042E0,-1.655811722E1,-8.116571503E0,1.927631470E1
2.976883042E0,-1.577689178E1,-8.284222870E0,1.631472336E1
2.986913042E0,-1.460408066E1,-8.481961670E0,1.342632980E1
2.996944042E0,-1.312665298E1,-9.006321259E0,1.069540878E1
3.006974042E0,-1.256382339E1,-9.195677490E0,7.479945374E0
3.017004042E0,-1.211191315E1,-8.606502686E0,3.889212341E0
3.027034042E0,-1.112785950E1,-9.116641846E0,2.029180298E0
3.037065042E0,-9.720785522E0,-8.540489960E0,4.620890808E-1
3.047095042E0,-7.936645660E0,-8.410260773E0,-1.246907043E-1
3.057125042E0,-6.094576263E0,-7.946824493E0,-2.390528870E-1
3.067155042E0,-4.528532867E0,-7.340136108E0,-5.468128967E-1
3.077186042E0,-3.527115326E0,-7.022796021E0,-9.345066833E-1
3.087216042E0,-2.750679932E0,-6.759194183E0,-1.238823853E0
3.097246042E0,-1.972148895E0,-6.378685455E0,-5.334906006E-1
3.107276042E0,-4.828958130E-1,-5.620512085E0,2.544259186E0
3.117306042E0,4.565505981E-1,-4.350103912E0,5.096302185E0
3.127337042E0,1.427731018E0,-2.696941681E0,6.125262451E0
3.137367042E0,2.267933807E0,-1.825154572E0,6.531367950E0
3.147397042E0,3.464994507E0,-1.577270050E0,5.974076843E0
3.157427042E0,3.972289581E0,-1.377734985E0,6.640790405E0
3.167458042E0,1.831890564E0,-2.746039581E0,5.414690094E0
3.177488042E0,2.959346008E-1,-3.540886688E0,4.168381805E0
3.187518042E0,-9.729766846E-3,-3.817960510E0,3.663781128E0
3.197548042E0,-6.411167908E-1,-4.207450562E0,3.776796112E0
3.207579042E0,-2.695145416E0,-5.527705078E0,3.721710663E0
3.217609042E0,-5.566624146E0,-6.998247070E0,2.472857666E0
3.227639042E0,-7.578889618E0,-7.751181335E0,1.733096008E0
3.237669042E0,-8.143066406E0,-7.247927856E0,2.036814423E0
3.247700042E0,-7.112160187E0,-7.298223267E0,6.975494385E-1
3.257730042E0,-5.697302399E0,-6.876550140E0,7.155120850E-1
3.267760042E0,-4.387825470E0,-6.174360352E0,4.324507141E-1
3.277790042E0,-4.722529449E0,-5.449717255E0,1.947599945E0
3.287820042E0,-5.822741547E0,-5.022056580E0,2.101929016E0
3.297851042E0,-5.206323395E0,-4.437522125E0,1.732497253E0
3.307881042E0,-4.762196960E0,-5.081183624E0,2.076931000E0
3.317911042E0,-5.555098114E0,-6.363716583E0,1.632654877E0
3.327941042E0,-6.290668488E0,-6.498885498E0,3.300636292E-1
3.337972042E0,-5.917793884E0,-5.863456879E0,-3.129991150E-1
3.348002042E0,-5.269492035E0,-6.004014587E0,-5.966592407E-1
3.358032042E0,-4.830155640E0,-5.776936798E0,-4.677772522E-1
3.368062042E0,-4.458179169E0,-5.367987213E0,-6.706054688E-2
3.378093042E0,-4.277205505E0,-5.523962860E0,4.138893127E-1
3.388123042E0,-4.265829163E0,-5.974226532E0,3.523672485E-1
3.398153042E0,-4.032165070E0,-6.708749084E0,3.496728516E-1
3.408183042E0,-4.061803436E0,-8.012088776E0,6.520440674E-1
3.418214042E0,-5.075645142E0,-9.529333649E0,3.222798157E-1
3.428244042E0,-6.037395172E0,-1.036280045E1,-8.384065247E-1
3.438274042E0,-6.141578522E0,-9.310189362E0,-1.205143890E0
3.448304042E0,-5.345234528E0,-7.264094238E0,-1.626817017E0
3.458334042E0,-5.164709930E0,-9.985435181E0,1.614692230E0
