"Time (s)","X (rad/s)","Y (rad/s)","Z (rad/s)"
2.975874988E-3,-8.085403442E-1,-7.442547679E-1,8.439560235E-2
1.292387501E-2,-1.047973394E0,-8.792908788E-1,8.946733177E-2
2.287287504E-2,-1.254206419E0,-9.784135222E-1,4.538792372E-2
3.282187501E-2,-1.426733971E0,-1.104917169E0,-3.454712406E-2
4.276987503E-2,-1.560141683E0,-1.262498498E0,-9.454491735E-2
5.271887500E-2,-1.630252600E0,-1.374200583E0,-1.225520447E-1
6.266687502E-2,-1.594987392E0,-1.394993186E0,-1.273800433E-1
7.261587499E-2,-1.441712022E0,-1.297783732E0,-1.152235121E-1
8.256387501E-2,-1.198057532E0,-1.127058625E0,-9.845282137E-2
9.251287504E-2,-9.200668931E-1,-9.356537461E-1,-5.693706870E-2
1.024608750E-1,-6.687817574E-1,-6.842280030E-1,1.823166944E-2
1.124098750E-1,-4.978798032E-1,-4.634607136E-1,1.289166361E-1
1.223578750E-1,-3.674213886E-1,-3.288310170E-1,9.331603348E-2
1.323068750E-1,-2.555222809E-1,-2.192429900E-1,-3.257398680E-2
1.422558750E-1,-1.600210667E-1,-1.807917804E-1,-1.804866195E-1
1.522038750E-1,-1.154647768E-1,-1.538682878E-1,-3.348695040E-1
1.621528750E-1,-1.514097303E-1,-1.806168258E-1,-4.821591377E-1
1.721008750E-1,-2.448323667E-1,-2.683908939E-1,-5.589900017E-1
1.820498750E-1,-3.364593685E-1,-2.642470896E-1,-5.947241187E-1
1.919978750E-1,-2.797585428E-1,7.258553803E-2,-5.403211117E-1
2.019468750E-1,-7.682458311E-2,4.298898280E-1,-3.921280205E-1
2.118948750E-1,1.543441862E-1,7.507002950E-1,-2.454136908E-1
2.218438750E-1,2.934215069E-1,9.927732944E-1,-1.606563330E-1
2.317918750E-1,2.754726112E-1,1.204207540E0,-1.579473615E-1
2.417408750E-1,1.289671808E-1,1.200953603E0,-1.684184968E-1
2.516888750E-1,-1.785584092E-1,9.376493096E-1,-1.734294891E-1
2.616378750E-1,-5.077350736E-1,7.760018706E-1,-2.289352417E-1
2.715868750E-1,-8.525041938E-1,5.165053010E-1,-2.678040564E-1
2.815348750E-1,-1.131659150E0,2.119801342E-1,-2.335297465E-1
2.914838750E-1,-1.181159496E0,7.025468349E-2,-1.750110537E-1
3.014318750E-1,-9.742222428E-1,1.044395864E-1,-1.741532832E-1
3.113808750E-1,-4.224509597E-1,-1.330177188E-1,7.047963887E-2
3.213288750E-1,7.271843404E-2,-5.966102704E-2,1.028433517E-1
3.312778750E-1,4.391818941E-1,1.171883121E-1,-4.245258868E-2
3.412258750E-1,7.192837596E-1,1.374382153E-2,-1.109913737E-1
3.511748750E-1,9.186703563E-1,-2.940238416E-1,-3.080812469E-2
3.611228750E-1,1.042102218E0,-2.104292959E-1,4.674817435E-3
3.710718750E-1,1.100625157E0,1.996003091E-1,-9.843532741E-2
3.810198750E-1,1.161289692E0,8.112849593E-1,-3.164011240E-1
3.909680417E-1,1.415505171E0,1.613292217E0,-4.805336297E-1
4.009170417E-1,1.687459826E0,1.772668719E0,-6.031206250E-1
4.108650417E-1,1.846056342E0,1.505721688E0,-5.901216865E-1
4.208140417E-1,1.795312285E0,1.127329826E0,-5.858563185E-1
4.307620417E-1,1.470718741E0,8.279374838E-1,-6.611481309E-1
4.407110417E-1,9.361302853E-1,6.366203427E-1,-7.912446856E-1
4.506590417E-1,3.871846199E-1,4.850867093E-1,-8.803157210E-1
4.606080417E-1,-4.042396694E-2,4.556296468E-1,-9.290347695E-1
4.705560417E-1,-3.286733329E-1,6.522955894E-1,-1.011835337E0
4.805050417E-1,-4.893896282E-1,1.070451260E0,-1.143722773E0
4.904530417E-1,-5.386405587E-1,1.605449080E0,-1.345761061E0
5.004020417E-1,-4.950898886E-1,2.184728861E0,-1.618650317E0
5.103500417E-1,-4.111747444E-1,2.701029778E0,-1.805159807E0
5.202990417E-1,-3.576694429E-1,3.117539406E0,-1.692244649E0
5.302480417E-1,-3.083618283E-1,3.571388721E0,-1.649051189E0
5.401960417E-1,-2.789710462E-1,4.115136623E0,-1.762335896E0
5.501450417E-1,-2.438993305E-1,4.754115105E0,-2.103941679E0
5.600930417E-1,-1.621289700E-1,5.404121399E0,-2.653700352E0
5.700420417E-1,2.745747566E-2,5.952877998E0,-3.161728859E0
5.799900417E-1,2.202414572E-1,6.350308418E0,-3.528431416E0
5.899390417E-1,3.883204460E-1,6.558332920E0,-3.833833694E0
5.998870417E-1,5.017904639E-1,6.558655739E0,-4.137144566E0
6.098360417E-1,5.997633338E-1,6.411472797E0,-4.452381611E0
6.197840417E-1,6.030752659E-1,6.253372192E0,-4.806844711E0
6.297330417E-1,3.840057254E-1,6.044053078E0,-5.383313656E0
6.396810416E-1,-1.440591514E-1,5.735264778E0,-5.772165775E0
6.496300417E-1,-6.946322322E-1,5.156684399E0,-5.885334492E0
6.595790417E-1,-1.040200472E0,4.388815403E0,-5.887362480E0
6.695270417E-1,-1.114195585E0,3.952572823E0,-5.838292122E0
6.794760417E-1,-8.362783790E-1,3.851554871E0,-5.712539673E0
6.894240417E-1,-2.265689373E-1,3.811359644E0,-5.563187122E0
6.993730417E-1,5.382816195E-1,3.679040670E0,-5.400013447E0
7.093210416E-1,1.272376657E0,3.385484219E0,-5.101706982E0
7.192700417E-1,1.754561424E0,2.865766048E0,-4.523189068E0
7.292180417E-1,1.897145510E0,2.188291788E0,-3.707556009E0
7.391670417E-1,1.697373152E0,1.690030098E0,-2.811816931E0
7.491150417E-1,1.335231781E0,1.410022378E0,-1.969491482E0
7.590640417E-1,9.414530396E-1,1.245887756E0,-1.183573961E0
7.690120417E-1,5.415442586E-1,1.069427848E0,-5.041038990E-1
7.789610417E-1,1.930638850E-1,9.578424692E-1,-1.653795131E-2
7.889100417E-1,-7.680834085E-2,9.263820052E-1,2.928848863E-1
7.988580417E-1,-3.177359998E-1,8.409657478E-1,4.985211790E-1
8.088070417E-1,-4.907695651E-1,6.847788095E-1,7.026428580E-1
8.187550417E-1,-5.016271472E-1,6.258525848E-1,9.838516712E-1
8.287040417E-1,-3.474231958E-1,7.498847842E-1,1.260311961E0
8.386520417E-1,3.495946527E-2,1.196758866E0,1.524643898E0
8.486010417E-1,5.579915047E-1,1.764790058E0,1.765109777E0
8.585490417E-1,9.689179063E-1,2.198512316E0,1.934622765E0
8.684980417E-1,1.136893630E0,2.407290936E0,2.038499355E0
8.784460417E-1,1.129047632E0,2.336053133E0,2.104286194E0
8.883950417E-1,1.167055726E0,2.239570379E0,2.175580263E0
8.983430417E-1,1.166221857E0,2.046933413E0,2.190170527E0
9.082920417E-1,6.362800598E-1,1.363359332E0,1.883798480E0
9.182410417E-1,-3.553739190E-1,7.878861427E-1,1.285949230E0
9.281890417E-1,-9.997587204E-1,6.298165917E-1,8.060632944E-1
9.381380417E-1,-1.304010510E0,5.250692964E-1,8.029958010E-1
9.480860417E-1,-1.353419304E0,5.092453361E-1,1.225256920E0
9.580350417E-1,-1.270750523E0,6.672191620E-1,1.694769382E0
9.679830417E-1,-7.913495302E-1,1.260990977E0,1.970067024E0
9.779320417E-1,6.765788794E-2,1.930693388E0,2.014880657E0
9.878800416E-1,9.526161551E-1,2.561244488E0,1.715490699E0
9.978290417E-1,1.788776517E0,3.058686018E0,1.432817698E0
1.007777042E0,2.399481535E0,3.099445343E0,1.189328313E0
1.017726042E0,2.445919514E0,2.750602245E0,8.644093275E-1
1.027674042E0,2.342472315E0,2.364847183E0,7.435755730E-1
1.037623042E0,2.281836987E0,1.849942207E0,6.070041656E-1
1.047571042E0,2.350140333E0,1.505435467E0,6.250374913E-1
1.057520042E0,2.505048990E0,1.338279366E0,6.754224300E-1
1.067468042E0,2.610519648E0,1.186695457E0,7.410438061E-1
1.077417042E0,2.193377256E0,8.110675216E-1,8.780547380E-1
1.087366042E0,8.110288382E-1,-6.715214811E-3,1.162907481E0
1.097314042E0,-9.501450062E-1,-8.632391691E-1,1.373328090E0
1.107263042E0,-1.657850504E0,-1.129834294E0,1.423739076E0
1.117211042E0,-1.492356896E0,-8.510842323E-1,1.500663996E0
1.127160042E0,-7.346169949E-1,-3.976802230E-1,1.354668617E0
1.137108042E0,-1.259047352E-2,-7.877577096E-3,1.112602472E0
1.147057042E0,1.438214928E-1,-4.142541438E-2,9.364652634E-1
1.157005042E0,-6.577819586E-2,-4.467216134E-1,7.952452302E-1
1.166954042E0,-2.834953368E-1,-9.129516482E-1,5.571647286E-1
1.176902042E0,-1.702710539E-1,-1.077363729E0,2.965396047E-1
1.186851042E0,2.405793369E-1,-1.115244508E0,-2.088317275E-1
1.196799042E0,8.095385432E-1,-7.996412516E-1,-8.778213263E-1
1.206748042E0,1.110216856E0,-3.659217954E-1,-1.277164698E0
1.216696042E0,8.433274031E-1,-2.825845480E-1,-1.518208385E0
1.226645042E0,5.239368677E-1,-4.995677173E-1,-1.830410838E0
1.236594042E0,9.317746758E-1,-5.007305741E-1,-2.044748545E0
1.246542042E0,1.551178098E0,-4.887420833E-1,-2.092647314E0
1.256491042E0,1.994716167E0,-4.462926388E-1,-1.992906570E0
1.266439042E0,2.259757042E0,-4.127732813E-1,-1.773646951E0
1.276388042E0,2.341932058E0,-6.257308125E-1,-1.495142221E0
1.286336042E0,2.221140146E0,-9.086312652E-1,-1.221211672E0
1.296285042E0,1.890423179E0,-1.105313420E0,-1.038648844E0
1.306233042E0,1.437912226E0,-1.259171605E0,-1.000783205E0
1.316182042E0,1.028228402E0,-1.322974086E0,-1.084771752E0
1.326130042E0,8.013478518E-1,-1.443428278E0,-1.289838910E0
1.336079042E0,6.829206347E-1,-1.683250070E0,-1.616876125E0
1.346027042E0,6.348111629E-1,-2.014731169E0,-2.002427578E0
1.355976042E0,5.987102985E-1,-2.450499535E0,-2.364950895E0
1.365924042E0,4.002768695E-1,-2.815087318E0,-2.454292059E0
1.375873042E0,-3.210612014E-2,-3.172060490E0,-2.217155933E0
1.385821042E0,-5.955620408E-1,-3.618688345E0,-1.805705667E0
1.395770500E0,-1.182337999E0,-4.052077293E0,-1.326441884E0
1.405719500E0,-1.581089616E0,-4.377879143E0,-8.204829097E-1
1.415667500E0,-1.647314310E0,-4.550407887E0,-6.030626893E-1
1.425616500E0,-1.392172575E0,-4.519999027E0,-7.021527886E-1
1.435564500E0,-7.989641428E-1,-4.499251842E0,-7.633230090E-1
1.445513500E0,-9.219714440E-3,-4.715258121E0,-6.084055901E-1
1.455461500E0,6.359804869E-1,-4.697134495E0,-2.750147879E-1
1.465410500E0,5.283128619E-1,-3.930851460E0,1.223951504E-1
1.475358500E0,-3.830122352E-1,-2.939084053E0,2.128604800E-1
1.485307500E0,-4.506905973E-1,-2.305726528E0,4.800458252E-1
1.495255500E0,1.477027982E-1,-1.597471237E0,5.817717910E-1
1.505204500E0,8.034244776E-1,-5.534136891E-1,4.870646894E-1
1.515152500E0,1.374877572E0,3.369706273E-1,4.345992506E-1
1.525101500E0,1.692055583E0,7.685819268E-1,4.484634101E-1
1.535049500E0,1.772728443E0,7.410634756E-1,5.589195490E-1
1.544998500E0,1.655773044E0,5.115021467E-1,7.158476710E-1
1.554946500E0,1.334348917E0,2.512306273E-1,8.092324734E-1
1.564895500E0,8.375372887E-1,-1.837876886E-1,8.719102740E-1
1.574844500E0,3.384152055E-1,-7.010101676E-1,7.523530722E-1
1.584792500E0,-1.914132237E-1,-1.235574484E0,4.218678474E-1
1.594741500E0,-6.979837418E-1,-1.664353967E0,4.448449984E-2
1.604689500E0,-1.009594321E0,-1.933252573E0,-3.632718325E-1
1.614638500E0,-1.157739997E0,-2.052202225E0,-7.592340112E-1
1.624586500E0,-1.121341228E0,-1.913969040E0,-1.054418445E0
1.634535500E0,-8.888375759E-1,-1.490295053E0,-1.278597355E0
1.644483500E0,-4.942180812E-1,-9.753773808E-1,-1.397029638E0
1.654432500E0,-9.193284065E-2,-5.423489213E-1,-1.400409937E0
1.664380500E0,1.577062905E-1,-9.591813385E-2,-1.396153688E0
1.674329500E0,3.385792673E-1,2.626080215E-1,-1.424790978E0
1.684277500E0,3.317573071E-1,8.229653239E-1,-1.507982969E0
1.694226500E0,6.395636499E-2,1.219411612E0,-1.456837416E0
1.704174500E0,-3.629475534E-1,1.356853127E0,-1.504276037E0
1.714123500E0,-6.823247671E-1,1.120437860E0,-1.659675360E0
1.724071500E0,-7.895172834E-1,4.566089511E-1,-2.193329096E0
1.734020500E0,-1.037526488E0,3.019249737E-1,-2.810193062E0
1.743968500E0,-1.543788671E0,5.761151910E-1,-3.465755463E0
1.753917500E0,-2.144659758E0,8.063449264E-1,-4.203455925E0
1.763866500E0,-2.703037024E0,1.380805612E0,-4.758214474E0
1.773814500E0,-3.269770145E0,2.199980497E0,-5.119916439E0
1.783763500E0,-3.552137375E0,2.558445215E0,-5.797708035E0
1.793711500E0,-3.604643106E0,2.255251408E0,-6.387088776E0
1.803660500E0,-3.545779943E0,1.648866296E0,-6.933063507E0
1.813608500E0,-3.258588314E0,3.001166284E-1,-7.397569180E0
1.823557500E0,-2.984338284E0,-1.451815128E0,-7.511331558E0
1.833505500E0,-3.047684431E0,-1.943195701E0,-7.202720165E0
1.843454500E0,-2.773266792E0,-1.240756392E0,-6.872034550E0
1.853402500E0,-2.402781010E0,7.077619433E-1,-6.338687420E0
1.863351500E0,-2.339002848E0,3.286188364E0,-5.661500454E0
1.873299500E0,-2.408927202E0,5.278506756E0,-5.048883915E0
1.883248500E0,-2.737467051E0,7.078485966E0,-4.592793465E0
1.893196500E0,-2.985062122E0,9.025905609E0,-5.438606262E0
1.903145500E0,-3.178947926E0,1.026273441E1,-6.932168007E0
1.913093500E0,-3.830742121E0,1.014065266E1,-8.006643295E0
1.923042500E0,-4.904665470E0,7.130924225E0,-7.402801037E0
1.932991500E0,-5.787708282E0,2.816224337E0,-4.261109829E0
1.942939500E0,-5.812253952E0,-2.055664062E0,1.087790504E-1
1.952888500E0,-4.901119709E0,-5.229425907E0,1.999953270E0
1.962836500E0,-3.058719873E0,-3.015944719E0,2.068255424E0
1.972785500E0,-1.599461079E0,-1.078793645E0,1.420834541E0
1.982733500E0,-1.036034822E0,2.326399237E-1,8.615502715E-1
1.992682500E0,-1.187216640E0,9.976661801E-1,5.551896095E-1
2.002630500E0,-1.778487086E0,1.368094921E0,3.611394465E-1
2.012579500E0,-2.233965874E0,1.362129688E0,1.446180642E-1
2.022527500E0,-2.384458065E0,1.187829971E0,4.203158896E-3
2.032476500E0,-2.367252350E0,1.268898010E0,1.522980630E-2
2.042424500E0,-2.126736641E0,1.589001179E0,5.502142757E-2
2.052373500E0,-1.641119719E0,1.781161547E0,6.201776862E-2
2.062321500E0,-1.136497855E0,1.906847000E0,7.423555851E-2
2.072270500E0,-6.958618164E-1,1.932728171E0,4.949105904E-2
2.082218500E0,-3.158647418E-1,1.834245801E0,-2.553844452E-2
2.092167500E0,9.025879949E-2,1.568292618E0,-5.376488343E-2
2.102115500E0,4.880200326E-1,1.334578156E0,-9.214727208E-3
2.112064500E0,8.968411088E-1,9.813452959E-1,-3.041656688E-3
2.122012500E0,1.376880884E0,5.555849671E-1,3.565220907E-2
2.131961500E0,1.829758406E0,3.113140166E-1,6.152470782E-2
2.141909500E0,2.190337896E0,1.764670946E-2,5.003583059E-2
2.151858500E0,2.203400373E0,-4.955173135E-1,9.336833656E-2
2.161807500E0,1.517481804E0,-1.076269507E0,2.408848256E-1
2.171755500E0,-6.580540538E-1,-1.927946329E0,4.790233374E-1
2.181704500E0,-1.467151642E0,-7.811940312E-1,4.132600427E-1
2.191652500E0,-1.083720565E0,7.894694209E-1,4.893310070E-1
2.201601500E0,-8.873898983E-1,1.535999656E0,8.730160594E-1
2.211549500E0,-1.006431460E0,2.116008759E0,9.629445672E-1
2.221498500E0,-1.122397661E0,2.110673904E0,1.180202603E0
2.231446500E0,-1.077125072E0,1.751181722E0,1.078247190E0
2.241395500E0,-9.140210748E-1,1.380695820E0,7.508018613E-1
2.251343500E0,-6.324662566E-1,1.216641665E0,2.739179134E-1
2.261292500E0,-3.236761689E-1,1.117668748E0,-1.377814859E-1
2.271240500E0,-8.880348504E-2,8.146498203E-1,-2.750361860E-1
2.281189500E0,1.690980941E-1,5.352184176E-2,-3.416607678E-1
2.291137500E0,6.793716550E-1,-8.501979113E-1,-6.183000207E-1
2.301086500E0,1.027047276E0,-1.040634394E0,-7.965294123E-1
2.311034500E0,7.107328773E-1,-1.710340977E0,-1.112305969E-1
2.320983500E0,-1.062505007E0,-2.820244312E0,1.116482764E-1
2.330931500E0,-1.953453660E0,-2.892059326E0,1.180671304E-1
2.340880500E0,-9.896671176E-1,-1.135980368E0,2.314597368E-1
2.350828500E0,3.086225688E-1,9.557040334E-1,5.876131356E-2
2.360777500E0,1.009706616E0,2.096550226E0,8.323256671E-2
2.370725500E0,1.691948533E0,1.919973254E0,4.136539996E-2
2.380674500E0,2.733642578E0,7.488050461E-1,-3.484164476E-1
2.390623250E0,3.585455656E0,-6.973817348E-1,-6.004991531E-1
2.400571250E0,3.867241621E0,-1.872725606E0,-4.714376032E-1
2.410520250E0,3.992181301E0,-2.870120049E0,-3.459050059E-1
2.420468250E0,4.191702366E0,-3.699548960E0,-4.541718364E-1
2.430417250E0,4.410094738E0,-4.380100727E0,-7.214159966E-1
2.440365250E0,4.474030972E0,-4.714094639E0,-1.097624540E0
2.450314250E0,4.334236622E0,-4.460160255E0,-1.249571443E0
2.460262250E0,3.945560694E0,-3.503645420E0,-1.166227102E0
2.470211250E0,3.318765402E0,-1.827974558E0,-1.114914775E0
2.480159250E0,2.656577349E0,1.698101610E-1,-1.140822887E0
2.490108250E0,2.121289253E0,2.178384066E0,-1.147609711E0
2.500056250E0,1.995732307E0,3.963031530E0,-1.261973858E0
2.510005250E0,2.127360344E0,5.326974869E0,-1.325820208E0
2.519953250E0,2.410798311E0,6.233870029E0,-9.611402750E-1
2.529902250E0,2.807214737E0,6.770894051E0,-3.259970844E-1
2.539850250E0,3.016980171E0,6.100384235E0,1.565653235E-1
2.549799250E0,2.950275421E0,1.149226546E0,1.632583886E-1
2.559747250E0,2.642328978E0,-3.907130957E0,1.412220597E-1
2.569696250E0,2.262924433E0,-6.447340965E0,6.986163855E-1
2.579644250E0,2.080659628E0,-7.327356815E0,1.186272502E0
2.589593250E0,3.153957367E0,-6.670721531E0,1.320629001E0
2.599541250E0,5.051408768E0,-4.162520885E0,1.294356585E0
2.609490250E0,5.674255848E0,-2.512309074E0,1.056675553E0
2.619438250E0,4.843722343E0,-2.437378883E0,7.200412750E-1
2.629387250E0,3.275277615E0,-2.693038225E0,4.036929011E-1
2.639336250E0,1.974117279E0,-2.269345999E0,1.901052445E-1
2.649284250E0,1.590892076E0,-1.462752938E0,-4.129413143E-2
2.659233250E0,1.671876431E0,-3.620178401E-1,-3.689393699E-1
2.669181250E0,1.743296623E0,4.888442755E-1,-7.149513960E-1
2.679130250E0,1.470665097E0,8.573072553E-1,-1.009378433E0
2.689078250E0,9.100583196E-1,9.085639715E-1,-1.285204291E0
2.699027250E0,4.621450007E-1,8.672439456E-1,-1.536215782E0
2.708975250E0,3.095232546E-1,1.038906693E0,-1.665400624E0
2.718924250E0,5.357736945E-1,1.519062042E0,-1.680144906E0
2.728872250E0,8.301873803E-1,1.743511438E0,-1.511528730E0
2.738821250E0,8.197251558E-1,8.769729137E-1,-1.082404256E0
2.748769250E0,7.935948968E-1,-7.544142604E-1,-5.370757580E-1
2.758718250E0,1.078109980E0,-1.937529325E0,-7.334721088E-2
2.768666250E0,1.362436175E0,-2.158525229E0,3.209112287E-1
2.778615250E0,1.104984999E0,-1.649360776E0,5.441631675E-1
2.788563250E0,5.313148499E-1,-1.238487601E0,3.906016946E-1
2.798512250E0,2.946509793E-2,-4.810545146E-1,1.429220885E-1
2.808460250E0,-4.393087626E-1,6.172120571E-1,2.490944415E-2
2.818409250E0,-9.046695828E-1,1.225007772E0,-9.067627043E-2
2.828357250E0,-1.134167671E0,9.630267024E-1,-9.192730300E-3
2.838306250E0,-1.305464029E0,3.924414050E-3,2.943306565E-1
2.848254250E0,-1.606629491E0,-5.090477467E-1,6.836056113E-1
2.858203250E0,-2.022741556E0,-8.026280999E-2,8.230401874E-1
2.868151250E0,-2.615079641E0,4.517033696E-1,8.496223688E-1
2.878100250E0,-3.450464964E0,7.217282057E-1,8.650628328E-1
2.888048250E0,-4.213053703E0,1.205831766E0,1.006359100E0
2.897997250E0,-4.637080193E0,1.761376739E0,1.341497898E0
2.907946250E0,-4.636683464E0,1.700817347E0,1.533810377E0
2.917894250E0,-4.465564728E0,1.182428837E0,1.508792162E0
2.927843250E0,-4.287087917E0,8.867830634E-1,1.550062895E0
2.937791250E0,-4.081345558E0,9.764980674E-1,1.730909944E0
2.947740250E0,-3.886628628E0,1.264827609E0,1.840268612E0
2.957688250E0,-3.708075762E0,1.664220572E0,1.713598371E0
2.967637250E0,-3.458224297E0,2.078665972E0,1.141669512E0
2.977585250E0,-3.147522688E0,2.209198475E0,1.962939054E-1
2.987534250E0,-2.877268553E0,1.279690266E0,-6.398384571E-1
2.997482250E0,-3.779514551E0,-3.790899813E-1,-2.994849086E-1
3.007431250E0,-4.846822739E0,-1.443598032E0,5.009647012E-1
3.017379250E0,-4.680831432E0,-1.485244989E0,6.904425025E-1
3.027328250E0,-3.642546892E0,-1.109400988E0,4.441749156E-1
3.037276250E0,-2.661845684E0,-1.052093506E0,2.512139976E-1
3.047225250E0,-2.068471193E0,-1.454779983E0,1.789757907E-1
3.057173250E0,-1.785158992E0,-2.029994726E0,7.242776453E-2
3.067122250E0,-1.733485579E0,-2.265967846E0,3.210554272E-2
3.077070250E0,-1.692886472E0,-2.217036009E0,1.213976070E-1
3.087019250E0,-1.639498830E0,-2.031402349E0,2.293184847E-1
3.096967250E0,-1.556066513E0,-1.417582035E0,4.222985804E-1
3.106916250E0,-1.749706268E0,-1.980766505E-1,6.302815676E-1
3.116864250E0,-2.468830109E0,9.053519368E-1,4.749460220E-1
3.126813250E0,-2.930503368E0,1.849497914E0,1.822275817E-1
3.136761250E0,-2.977010965E0,2.339349508E0,1.589584798E-1
3.146710250E0,-2.806307793E0,2.266088724E0,3.044835329E-1
3.156658250E0,-2.515733480E0,2.512777090E0,2.515380383E-1
3.166607250E0,-2.008663416E0,2.627767563E0,2.240577340E-1
3.176555250E0,-1.556547046E0,2.611176014E0,2.250532210E-1
3.186504250E0,-1.241338968E0,2.438048840E0,1.654903442E-1
3.196453250E0,-9.177767038E-1,2.034238100E0,1.584587991E-1
3.206401250E0,-5.826790929E-1,1.676557183E0,1.721273810E-1
3.216350250E0,-2.360106409E-1,1.347066402E0,1.974990517E-1
3.226298250E0,1.665728986E-1,8.151237965E-1,2.401667535E-1
3.236247250E0,6.320116520E-1,7.887296379E-2,3.024703562E-1
3.246195250E0,1.097630143E0,-5.702577233E-1,3.876620233E-1
3.256144250E0,1.563274980E0,-8.756796718E-1,4.850197434E-1
3.266092250E0,1.940078735E0,-1.011840701E0,5.941836834E-1
3.276041250E0,1.955267191E0,-6.654711962E-1,5.723484159E-1
3.285989250E0,1.464230061E0,-1.914168447E-1,3.706924319E-1
3.295938250E0,6.307153404E-2,2.675277367E-2,5.093838274E-2
3.305886250E0,-1.188984156E0,7.406237721E-1,-1.264033914E-1
3.315835250E0,-1.285474658E0,2.199330568E0,-1.301637739E-1
3.325783250E0,-1.147389293E0,2.871704578E0,4.533078074E-1
3.335732250E0,-1.278587461E0,3.175045967E0,9.819758534E-1
3.345680250E0,-1.369865298E0,3.263572693E0,1.193037748E0
