"Time (s)","X (rad/s)","Y (rad/s)","Z (rad/s)"
4.296708154E-3,5.577774644E-1,-2.652494609E-1,-1.026210070E0
1.432770817E-2,5.592359900E-1,-2.377052903E-1,-1.071197271E0
2.435770817E-2,5.523986220E-1,-2.256134748E-1,-1.105440736E0
3.438870818E-2,5.379329324E-1,-2.055249959E-1,-1.128135920E0
4.441970820E-2,5.219404101E-1,-1.679954678E-1,-1.123723030E0
5.445070821E-2,5.082308054E-1,-1.068384051E-1,-1.105172634E0
6.448170822E-2,5.083711743E-1,-4.493588954E-2,-1.084952593E0
7.451170823E-2,5.038815737E-1,3.319012932E-3,-1.054755330E0
8.454270824E-2,4.934912324E-1,3.310753778E-2,-1.029641509E0
9.457370825E-2,4.662538767E-1,4.737341404E-2,-1.013768673E0
1.046047083E-1,4.221830666E-1,5.093486235E-2,-9.967672825E-1
1.146347083E-1,3.689765632E-1,5.257099494E-2,-9.682823420E-1
1.246657083E-1,3.106570542E-1,6.552940607E-2,-9.375358820E-1
1.346967083E-1,2.669004202E-1,8.150489628E-2,-8.973076344E-1
1.447277083E-1,2.368938029E-1,7.563022524E-2,-8.557522297E-1
1.547587083E-1,2.255751938E-1,4.676907137E-2,-8.217258453E-1
1.647887083E-1,2.279499322E-1,6.138820201E-3,-7.935626507E-1
1.748197083E-1,2.400004417E-1,-3.211929649E-2,-7.650160193E-1
1.848507081E-1,2.605664432E-1,-6.348866969E-2,-7.384528518E-1
1.948817081E-1,2.860545814E-1,-8.509200811E-2,-7.154139280E-1
2.049117081E-1,3.172439337E-1,-9.274673462E-2,-6.993097663E-1
2.149427081E-1,3.487222791E-1,-6.967016309E-2,-6.856616139E-1
2.249737082E-1,3.704571426E-1,-3.532497212E-2,-6.711436510E-1
2.350047082E-1,3.821953237E-1,1.284084190E-2,-6.469070315E-1
2.450357082E-1,3.924285471E-1,7.431964576E-2,-6.203243732E-1
2.550657082E-1,4.005976021E-1,1.414912790E-1,-5.860772133E-1
2.650967082E-1,4.024519622E-1,1.946631521E-1,-5.403797626E-1
2.751277082E-1,4.018011689E-1,2.195913047E-1,-4.785808623E-1
2.851587082E-1,3.964383900E-1,2.092174888E-1,-4.255325496E-1
2.951887082E-1,3.831571937E-1,1.695369184E-1,-3.749338090E-1
3.052197082E-1,3.557963967E-1,1.192492545E-1,-3.263092935E-1
3.152507083E-1,3.158935308E-1,6.611581892E-2,-2.827707231E-1
3.252817083E-1,2.594363987E-1,1.120250300E-2,-2.477283180E-1
3.353127083E-1,1.918693334E-1,-2.866522595E-2,-2.176509202E-1
3.453427083E-1,1.191357300E-1,-3.562459722E-2,-1.962548196E-1
3.553737083E-1,5.322639644E-2,2.889721072E-4,-1.850865334E-1
3.654047083E-1,5.780998617E-4,8.151245862E-2,-1.815804839E-1
3.754357083E-1,-3.676342964E-2,1.703830361E-1,-1.796142012E-1
3.854657083E-1,-6.487895548E-2,2.298237234E-1,-1.714433581E-1
3.954967083E-1,-8.670457453E-2,2.509673238E-1,-1.702911705E-1
4.055277081E-1,-1.048593447E-1,2.456031889E-1,-1.850504130E-1
4.155587081E-1,-1.196233705E-1,2.128822654E-1,-1.991292238E-1
4.255897081E-1,-1.334707439E-1,1.621557027E-1,-2.020967752E-1
4.356197082E-1,-1.487666368E-1,8.709660172E-2,-1.904549003E-1
4.456507082E-1,-1.637343913E-1,7.625747472E-3,-1.675826013E-1
4.556817082E-1,-1.823901385E-1,-7.572530955E-2,-1.377577037E-1
4.657127082E-1,-2.034096718E-1,-1.218648404E-1,-1.109774858E-1
4.757427082E-1,-2.194357216E-1,-1.101900637E-1,-7.807523012E-2
4.857737082E-1,-2.259237170E-1,-5.590524897E-2,-3.167151287E-2
4.958047082E-1,-2.217187732E-1,1.741052722E-3,1.245439425E-2
5.058357082E-1,-2.075715363E-1,4.146583006E-2,4.258406535E-2
5.158667082E-1,-2.065432966E-1,2.974072844E-2,6.469735503E-2
5.258967082E-1,-2.212551236E-1,-2.706103586E-2,8.394002914E-2
5.359277083E-1,-2.550389767E-1,-1.136101559E-1,9.393655509E-2
5.459587083E-1,-3.022224605E-1,-1.871544123E-1,9.819415212E-2
5.559897083E-1,-3.523627818E-1,-2.287313938E-1,9.818655252E-2
5.660197083E-1,-4.014728069E-1,-2.387091964E-1,9.686189890E-2
5.760507083E-1,-4.565983415E-1,-2.356055826E-1,9.500018507E-2
5.860817083E-1,-5.185005665E-1,-2.437761575E-1,9.275114536E-2
5.961127083E-1,-5.860547423E-1,-2.697505057E-1,8.730238676E-2
6.061437083E-1,-6.597827673E-1,-3.230153024E-1,8.481766284E-2
6.161737083E-1,-7.360723019E-1,-3.910888135E-1,9.549718350E-2
6.262047081E-1,-8.136124015E-1,-4.549226761E-1,1.165910140E-1
6.362357081E-1,-8.745472431E-1,-4.841559231E-1,1.343584508E-1
6.462667082E-1,-9.162626863E-1,-4.753887951E-1,1.530748755E-1
6.562967082E-1,-9.348263741E-1,-4.352401197E-1,1.765682399E-1
6.663277082E-1,-9.253417850E-1,-3.668016791E-1,1.999915391E-1
6.763587082E-1,-8.870152831E-1,-2.836841047E-1,2.355246097E-1
6.863897082E-1,-8.259794116E-1,-2.019817829E-1,2.849283814E-1
6.964207082E-1,-7.396468520E-1,-1.203208268E-1,3.345024884E-1
7.064513331E-1,-6.359462738E-1,-3.962811455E-2,3.816447258E-1
7.164823331E-1,-5.230818987E-1,4.798173532E-2,4.135975540E-1
7.265133332E-1,-4.192385972E-1,1.407830417E-1,4.388850629E-1
7.365443332E-1,-3.342801034E-1,2.285467535E-1,4.624123275E-1
7.465743332E-1,-2.767806053E-1,2.769611776E-1,4.847109616E-1
7.566053332E-1,-2.483633906E-1,3.014118075E-1,4.954914153E-1
7.666363332E-1,-2.378225923E-1,3.079203069E-1,5.004411340E-1
7.766673332E-1,-2.352702320E-1,2.995186746E-1,5.033127666E-1
7.866983332E-1,-2.266165465E-1,2.737534046E-1,5.057708621E-1
7.967283332E-1,-2.084531188E-1,2.415296137E-1,5.001148582E-1
8.067593332E-1,-1.753899753E-1,2.121837139E-1,4.714749753E-1
8.167903333E-1,-1.284157187E-1,1.800116301E-1,4.292323887E-1
8.268213333E-1,-8.402241766E-2,1.485727429E-1,3.757315874E-1
8.368513333E-1,-4.574209079E-2,1.198207363E-1,3.038608432E-1
8.468823333E-1,-2.305089310E-2,8.890569955E-2,2.191457003E-1
8.569133333E-1,-1.891774498E-2,7.999479771E-2,1.353940517E-1
8.669443333E-1,-2.205654606E-2,9.502221644E-2,5.312553421E-2
8.769753333E-1,-2.036001906E-2,1.122364551E-1,-9.047973901E-3
8.870053333E-1,-1.065333094E-2,1.036221981E-1,-4.958475009E-2
8.970363333E-1,1.709020138E-2,7.418069988E-2,-7.627951354E-2
9.070673331E-1,5.484689772E-2,3.700643033E-2,-8.730153739E-2
9.170983331E-1,9.996052831E-2,1.472960599E-2,-8.013279736E-2
9.271283331E-1,1.509936154E-1,1.570911705E-2,-6.144114211E-2
9.371593331E-1,2.075319886E-1,4.818106815E-2,-4.352335259E-2
9.471903332E-1,2.627526522E-1,8.028706908E-2,-3.445822001E-2
9.572213332E-1,2.996593118E-1,8.589701355E-2,-3.335148096E-2
9.672523332E-1,3.103646934E-1,5.953197926E-2,-4.756796733E-2
9.772823332E-1,2.916504443E-1,1.290710364E-2,-8.257650584E-2
9.873133332E-1,2.484156191E-1,-3.537227958E-2,-1.178431511E-1
9.973443332E-1,1.936102957E-1,-5.978518352E-2,-1.484531611E-1
1.007375333E0,1.487139314E-1,-4.033664986E-2,-1.729198843E-1
1.017406333E0,1.201319620E-1,-3.192504402E-3,-1.788476408E-1
1.027436333E0,1.150908619E-1,3.892938420E-2,-1.658130735E-1
1.037467333E0,1.237897426E-1,5.716252699E-2,-1.398831159E-1
1.047498333E0,1.471073031E-1,5.320373923E-2,-1.129665449E-1
1.057529333E0,1.754954010E-1,3.111378103E-2,-8.953311294E-2
1.067559333E0,2.009951621E-1,-5.574458279E-3,-7.568414509E-2
1.077590333E0,2.139441967E-1,-2.129187994E-2,-6.563374400E-2
1.087621333E0,2.221856117E-1,2.012643730E-3,-5.940620601E-2
1.097652333E0,2.284697443E-1,6.503309309E-2,-5.531555042E-2
1.107683333E0,2.324999124E-1,1.543256789E-1,-4.797507823E-2
1.117713333E0,2.328163087E-1,2.255844474E-1,-3.435820341E-2
1.127744333E0,2.333838195E-1,2.571868598E-1,-1.946793869E-2
1.137775333E0,2.370070666E-1,2.467617840E-1,-1.595807821E-2
1.147806333E0,2.419810444E-1,2.000206411E-1,-1.891924813E-2
1.157836333E0,2.440706640E-1,1.426504999E-1,-2.217848226E-2
1.167867333E0,2.409150898E-1,1.000290141E-1,-2.333695628E-2
1.177898333E0,2.387560159E-1,9.438210726E-2,-2.819800004E-2
1.187929333E0,2.414828241E-1,1.339175254E-1,-4.406804219E-2
1.197960333E0,2.450774908E-1,1.831650436E-1,-6.030711159E-2
1.207990333E0,2.540997565E-1,2.277873755E-1,-8.277566731E-2
1.218021333E0,2.579677701E-1,2.454619557E-1,-1.046576947E-1
1.228052333E0,2.621939480E-1,2.417191565E-1,-1.324144900E-1
1.238083333E0,2.623338401E-1,2.172378302E-1,-1.637116969E-1
1.248113333E0,2.537952065E-1,1.898711920E-1,-1.919494569E-1
1.258144333E0,2.324925661E-1,1.589396000E-1,-2.170519233E-1
1.268175333E0,2.122333646E-1,1.550931931E-1,-2.376823574E-1
1.278206333E0,2.068814635E-1,1.562340558E-1,-2.512763143E-1
1.288237333E0,2.192806154E-1,1.605398506E-1,-2.563424706E-1
1.298267333E0,2.460130155E-1,1.658582687E-1,-2.500747740E-1
1.308298333E0,2.864446044E-1,1.650960594E-1,-2.440685183E-1
1.318329333E0,3.249215782E-1,1.488990188E-1,-2.433805615E-1
1.328360333E0,3.501619697E-1,1.197680384E-1,-2.437771112E-1
1.338391333E0,3.598188162E-1,8.881923556E-2,-2.478076220E-1
1.348421333E0,3.495435417E-1,7.280910760E-2,-2.481753975E-1
1.358452333E0,3.319830298E-1,6.839077920E-2,-2.510152161E-1
1.368483333E0,3.214371800E-1,1.004104987E-1,-2.493089586E-1
1.378514333E0,3.225096762E-1,1.452214271E-1,-2.456829250E-1
1.388544333E0,3.469303250E-1,1.969352216E-1,-2.454733402E-1
1.398575333E0,3.921786547E-1,2.456828654E-1,-2.606982589E-1
1.408606333E0,4.493319690E-1,2.675266564E-1,-2.805747688E-1
1.418637333E0,4.955541492E-1,2.559269071E-1,-2.979224622E-1
1.428668333E0,5.299368501E-1,2.245673835E-1,-3.164708316E-1
1.438698333E0,5.474388599E-1,2.073051184E-1,-3.302922547E-1
1.448729333E0,5.441548824E-1,1.963757724E-1,-3.383965194E-1
1.458760333E0,5.402932763E-1,2.124528885E-1,-3.483811915E-1
1.468791333E0,5.296739340E-1,2.262232900E-1,-3.546518683E-1
1.478822333E0,5.207289457E-1,2.218585312E-1,-3.599003553E-1
1.488852333E0,5.112757683E-1,1.978453398E-1,-3.693399429E-1
1.498883333E0,5.011928082E-1,1.731528491E-1,-3.797532916E-1
1.508914333E0,4.804989994E-1,1.549884975E-1,-3.883859217E-1
1.518945333E0,4.528887272E-1,1.501841247E-1,-3.856083751E-1
1.528975333E0,4.258877337E-1,1.494352371E-1,-3.754260540E-1
1.539006333E0,3.995146453E-1,1.462290585E-1,-3.560283780E-1
1.549037333E0,3.766050637E-1,1.302567422E-1,-3.418563604E-1
1.559068333E0,3.604662418E-1,1.017106250E-1,-3.336891830E-1
1.569099333E0,3.440270722E-1,5.845636502E-2,-3.238503933E-1
1.579129333E0,3.259524107E-1,8.378839120E-3,-3.129768074E-1
1.589160333E0,3.091768920E-1,-3.564614058E-2,-3.022088408E-1
1.599191333E0,2.899802625E-1,-5.698772520E-2,-2.915201485E-1
1.609222333E0,2.656477690E-1,-6.376253814E-2,-2.721533775E-1
1.619252333E0,2.320044190E-1,-6.968008727E-2,-2.429003417E-1
1.629283333E0,1.559341550E-1,-6.966224313E-2,-2.096585035E-1
1.639314333E0,-3.644755185E-1,-2.142191678E-2,-1.227800027E-1
1.649345333E0,-6.881417036E-1,4.007526860E-2,-1.890051067E-1
1.659376333E0,-7.101184130E-1,1.312597245E-1,-2.502557933E-1
1.669406333E0,-6.194263101E-1,1.968091726E-1,-1.844861060E-1
1.679437333E0,-4.166079164E-1,1.699098051E-1,-1.016412452E-1
1.689468333E0,-1.499010921E-1,3.536264226E-2,-2.743066475E-2
1.699499333E0,9.018569440E-2,-8.508719504E-2,4.309022054E-2
1.709530458E0,2.554199100E-1,-1.520462483E-1,1.094319597E-1
1.719560458E0,3.410325646E-1,-1.782150120E-1,1.543219388E-1
1.729591458E0,3.408384323E-1,-1.580415666E-1,1.721102595E-1
1.739622458E0,2.777690291E-1,-1.462294459E-1,1.714197397E-1
1.749653458E0,1.733645946E-1,-1.478909850E-1,1.600144804E-1
1.759683458E0,5.386849120E-2,-1.481440514E-1,1.408871263E-1
1.769714458E0,-5.981998891E-2,-1.334322095E-1,1.239606142E-1
1.779745458E0,-1.439092159E-1,-1.133573502E-1,1.131201610E-1
1.789776458E0,-1.879818588E-1,-1.002913490E-1,1.122128218E-1
1.799807458E0,-1.985612065E-1,-8.608496189E-2,1.161867529E-1
1.809837458E0,-1.837702841E-1,-5.769966170E-2,1.253392398E-1
1.819868458E0,-1.439186782E-1,-2.377147041E-2,1.353111714E-1
1.829899458E0,-9.262591600E-2,9.908678476E-4,1.425653547E-1
1.839930458E0,-3.999885544E-2,4.442511592E-3,1.462920904E-1
1.849961458E0,6.716718432E-3,-1.055454649E-2,1.341872215E-1
1.859991458E0,4.572970420E-2,-3.592550755E-2,1.040435210E-1
1.870022458E0,7.401380688E-2,-5.608616769E-2,6.522022188E-2
1.880053458E0,8.566834778E-2,-7.634279877E-2,3.626761585E-2
1.890084458E0,7.448732853E-2,-7.466527820E-2,2.576410957E-2
1.900115458E0,5.654940754E-2,-5.328859389E-2,8.236207068E-3
1.910145458E0,4.410925135E-2,-2.639758959E-2,-9.825350717E-3
1.920176458E0,4.436891153E-2,-1.949464716E-2,-2.641227655E-2
1.930207458E0,4.856978357E-2,-1.107532997E-2,-5.075356737E-2
1.940238458E0,3.985798359E-2,1.877213828E-2,-6.830149144E-2
1.950268458E0,1.526023075E-2,6.119309738E-2,-7.067889720E-2
1.960299458E0,-1.215153653E-2,7.959298044E-2,-7.613838464E-2
1.970330458E0,-1.870477572E-2,4.457054660E-2,-8.894313127E-2
1.980361458E0,-1.175324060E-2,-2.982299216E-2,-9.788022935E-2
1.990392458E0,-4.968037829E-3,-9.397428483E-2,-1.020685807E-1
2.000422458E0,2.457443625E-4,-1.161730587E-1,-9.943012893E-2
2.010453458E0,8.041881956E-3,-1.090786681E-1,-9.192746878E-2
2.020484458E0,1.667269692E-2,-1.009874791E-1,-7.972529531E-2
2.030515458E0,1.438584086E-2,-9.791631997E-2,-5.809590220E-2
2.040546458E0,-3.953989595E-3,-1.033171341E-1,-3.386497125E-2
2.050576458E0,-3.041649237E-2,-1.006252170E-1,-1.309364568E-2
2.060607458E0,-5.049511418E-2,-7.525603473E-2,6.491187029E-3
2.070638458E0,-5.414338037E-2,-2.961131930E-2,2.643134072E-2
2.080669458E0,-3.476592526E-2,6.713132374E-3,4.598841816E-2
2.090700458E0,2.016589977E-3,2.138768137E-2,5.500748008E-2
2.100730458E0,3.465388343E-2,1.665275171E-2,6.164200231E-2
2.110761458E0,5.208933353E-2,-2.939059166E-3,6.632810086E-2
2.120792458E0,4.876124859E-2,-2.087699808E-2,7.015719265E-2
2.130823458E0,3.434396163E-2,-1.581592672E-2,7.231009007E-2
2.140854458E0,1.990851760E-2,1.165319979E-2,7.438404858E-2
2.150884458E0,5.237695761E-3,4.493872076E-2,7.592069358E-2
2.160915458E0,3.171209246E-3,8.759482950E-2,7.284107059E-2
2.170946458E0,5.086821038E-3,1.205293462E-1,5.804348364E-2
2.180977458E0,1.741445810E-2,1.380832046E-1,3.444095701E-2
2.191008458E0,2.300416678E-2,1.311227679E-1,2.643078100E-3
2.201038458E0,3.113022819E-2,1.227309108E-1,-3.424553573E-2
2.211069458E0,3.112916276E-2,1.191138029E-1,-6.904825568E-2
2.221100458E0,2.776406333E-2,1.469990164E-1,-1.008048654E-1
2.231131458E0,2.287316695E-2,2.001381367E-1,-1.309387982E-1
2.241161458E0,3.011882864E-2,2.781093717E-1,-1.620453149E-1
2.251192458E0,4.806507379E-2,3.518379033E-1,-1.918625981E-1
2.261223458E0,6.605096906E-2,4.033350646E-1,-2.097506821E-1
2.271254458E0,7.922881842E-2,4.093042612E-1,-2.124375403E-1
2.281285458E0,8.863662183E-2,3.837411404E-1,-2.192479968E-1
2.291316458E0,9.228275716E-2,3.352556527E-1,-2.267772853E-1
2.301346458E0,9.594114125E-2,2.867797315E-1,-2.414140105E-1
2.311377458E0,1.084486768E-1,2.438426316E-1,-2.607549429E-1
2.321408458E0,1.351796389E-1,2.232781500E-1,-2.752295434E-1
2.331439458E0,1.730103791E-1,2.100984305E-1,-2.824062407E-1
2.341470458E0,2.136163712E-1,2.064034939E-1,-2.785749137E-1
2.351500458E0,2.514273822E-1,1.975263804E-1,-2.743117213E-1
2.361531458E0,2.841513753E-1,1.986489296E-1,-2.713850737E-1
2.371562458E0,3.011327386E-1,1.830228269E-1,-2.679629028E-1
2.381593458E0,2.961317599E-1,1.372035444E-1,-2.515542507E-1
2.391624458E0,2.738656104E-1,7.139257342E-2,-2.242773771E-1
2.401654458E0,1.780135036E-1,-7.241120189E-2,-1.942718476E-1
2.411685458E0,-4.035396278E-1,-7.119690776E-1,-1.408959776E-1
2.421716458E0,-7.465726733E-1,-7.349418998E-1,-2.286966145E-1
2.431747458E0,-7.805697918E-1,-2.551390827E-1,-2.167438120E-1
2.441778458E0,-6.712099910E-1,2.205200344E-1,-9.193706512E-2
2.451808458E0,-4.543248117E-1,4.279507101E-1,6.843982637E-2
2.461839458E0,-2.058150172E-1,3.397218883E-1,1.835958064E-1
2.471870458E0,6.431983784E-3,1.395760030E-1,2.628834546E-1
2.481901458E0,1.345963329E-1,-5.801393464E-2,3.307300806E-1
2.491932458E0,1.847708225E-1,-1.966519803E-1,3.579992354E-1
2.501962458E0,1.662370712E-1,-2.520594001E-1,3.537774682E-1
2.511993458E0,8.042202890E-2,-2.419295013E-1,3.417530060E-1
2.522024458E0,-4.673705250E-2,-2.265910804E-1,3.264342546E-1
2.532055458E0,-1.843385845E-1,-2.063558549E-1,3.032170832E-1
2.542086458E0,-3.011893630E-1,-1.716993898E-1,2.753691971E-1
2.552116458E0,-3.710808456E-1,-1.340982169E-1,2.568205595E-1
2.562147458E0,-3.876497447E-1,-9.091201425E-2,2.499965876E-1
2.572178458E0,-3.668432534E-1,-4.386434704E-2,2.449176759E-1
2.582209458E0,-3.256930709E-1,-1.454587746E-2,2.416975945E-1
2.592240458E0,-2.762354910E-1,-1.997526363E-2,2.375057787E-1
2.602271458E0,-2.335972935E-1,-4.674804211E-2,2.321085036E-1
2.612301458E0,-1.968494058E-1,-7.048639655E-2,2.262519449E-1
2.622332458E0,-1.770069003E-1,-8.971046656E-2,2.151002735E-1
2.632363458E0,-1.640173346E-1,-8.170260489E-2,1.974554956E-1
2.642394458E0,-1.554521471E-1,-6.220086291E-2,1.873143464E-1
2.652425458E0,-1.481361836E-1,-4.119118676E-2,1.793483049E-1
2.662455458E0,-1.411449313E-1,-3.005333617E-2,1.753473282E-1
2.672486458E0,-1.378721744E-1,-3.014947660E-2,1.700284630E-1
2.682517458E0,-1.327239275E-1,-3.757870570E-2,1.670492291E-1
2.692548458E0,-1.298841983E-1,-3.787564859E-2,1.634196192E-1
2.702579375E0,-1.315644532E-1,-3.995409608E-2,1.546659023E-1
2.712610375E0,-1.298161000E-1,-4.318024963E-2,1.345041841E-1
2.722640375E0,-1.312542409E-1,-4.709347337E-2,1.120461673E-1
2.732671375E0,-1.319368035E-1,-3.631485999E-2,8.579192311E-2
2.742702375E0,-1.290886700E-1,-2.914256603E-2,6.263655424E-2
2.752733375E0,-1.258515865E-1,-1.163334679E-2,3.534394875E-2
2.762764375E0,-1.201054826E-1,1.145158149E-2,1.235651225E-2
2.772794375E0,-1.108938679E-1,3.163914010E-2,-3.891700413E-3
2.782825375E0,-1.004223302E-1,3.550508618E-2,-1.412857324E-2
2.792856375E0,-9.115958959E-2,2.272510529E-2,-1.934970170E-2
2.802887375E0,-8.030506968E-2,-1.155813038E-2,-2.434637584E-2
2.812918375E0,-7.248416543E-2,-4.296479002E-2,-3.060214035E-2
2.822949375E0,-6.304115802E-2,-6.576462090E-2,-2.864216641E-2
2.832979375E0,-5.288119614E-2,-8.326451480E-2,-2.712336555E-2
2.843010375E0,-3.992056102E-2,-8.017782122E-2,-2.632679418E-2
2.853041375E0,-2.090745792E-2,-5.873591080E-2,-3.084298410E-2
2.863072375E0,-1.283632591E-4,-2.859394811E-2,-3.335219994E-2
2.873103375E0,2.280118689E-2,-1.160857268E-2,-3.608513623E-2
2.883133375E0,4.468886554E-2,-2.685694490E-3,-3.559246659E-2
2.893164375E0,6.177330762E-2,-1.540947892E-2,-4.230176657E-2
2.903195375E0,6.907582283E-2,-3.737643361E-2,-4.553480446E-2
2.913226375E0,7.048836350E-2,-6.470632553E-2,-4.613668099E-2
2.923257375E0,7.155733556E-2,-9.150568396E-2,-4.608965665E-2
2.933288375E0,8.383690566E-2,-1.265132129E-1,-5.013979226E-2
2.943318375E0,1.034436375E-1,-1.560938358E-1,-5.402459577E-2
2.953349375E0,1.185962260E-1,-1.730022430E-1,-5.139206350E-2
2.963380375E0,1.266593933E-1,-1.496126801E-1,-5.142675713E-2
2.973411375E0,1.272929609E-1,-1.080093086E-1,-4.950235784E-2
2.983442375E0,1.214250401E-1,-6.513952464E-2,-4.882642254E-2
2.993473375E0,1.136605963E-1,-4.022645205E-2,-4.558508843E-2
3.003503375E0,1.012600362E-1,-3.330987319E-2,-3.663348407E-2
3.013534375E0,8.248502016E-2,-4.446985200E-2,-2.627165429E-2
3.023565375E0,5.577777699E-2,-5.995407701E-2,-2.172130905E-2
3.033596375E0,2.934350632E-2,-8.596730977E-2,-1.951701194E-2
3.043627375E0,6.001165602E-3,-1.048203558E-1,-1.958891563E-2
3.053658375E0,-1.002615876E-2,-1.168659627E-1,-1.917126030E-2
3.063688375E0,-1.466109511E-2,-1.010407880E-1,-2.316114120E-2
3.073719375E0,-1.056488696E-2,-7.354258001E-2,-1.844015531E-2
3.083750375E0,-2.769186161E-3,-4.735417292E-2,-1.160105225E-2
3.093781375E0,1.135036070E-2,-2.821589448E-2,2.901723143E-3
3.103812375E0,2.108611539E-2,-9.642804042E-3,1.587768085E-2
3.113843375E0,2.911687642E-2,1.081479480E-3,2.857616544E-2
3.123873375E0,2.843764797E-2,1.338768844E-2,3.437880427E-2
3.133904375E0,1.860765368E-2,3.310553497E-3,3.903933614E-2
3.143935375E0,1.436048653E-2,-2.211097442E-2,3.861505911E-2
3.153966375E0,1.644760557E-2,-5.991853774E-2,3.784087673E-2
3.163997375E0,1.833476126E-2,-9.472931176E-2,3.879852220E-2
3.174028375E0,2.410103753E-2,-1.026823074E-1,3.278563544E-2
3.184059375E0,3.046280332E-2,-9.884878248E-2,2.627415769E-2
3.194089375E0,4.299696907E-2,-9.383884817E-2,2.460435405E-2
3.204120375E0,5.530904979E-2,-8.571223915E-2,2.471579425E-2
3.214151375E0,6.662534922E-2,-6.950477511E-2,2.631901763E-2
3.224182375E0,7.749706507E-2,-4.983573779E-2,2.079899982E-2
3.234213375E0,8.376374841E-2,-3.770210966E-2,1.421513222E-2
3.244244375E0,8.262464404E-2,-3.788594529E-2,8.457436226E-3
3.254274375E0,8.114765584E-2,-3.459054977E-2,4.430203699E-3
3.264305375E0,7.561673969E-2,-3.905804828E-2,4.381299019E-3
3.274336375E0,7.428169996E-2,-5.277119949E-2,5.279050209E-3
3.284367375E0,7.297466695E-2,-7.837305963E-2,4.682331346E-3
